,BJD - 2454833, Corrected Flux
0,2061.30583815,0.9212044909999999
1,2061.326270443,0.9142617829999999
2,2061.346702636,0.907224602
3,2061.367134729,0.9007026379999999
4,2061.387567021,0.8969943990000001
5,2061.407999212,0.894114968
6,2061.428431503,0.892674135
7,2061.4897280729997,0.968038712
8,2061.510160162,0.9722555270000001
9,2061.530592351,0.976816152
10,2061.551024639,0.9798590290000001
11,2061.571456827,0.9819202020000001
12,2061.591888915,0.98334497
13,2061.612321201,0.984497952
14,2061.632753388,0.9848876870000001
15,2061.653185474,0.9863223729999999
16,2061.673617759,0.9899885
17,2061.694049945,0.995822937
18,2061.714482129,1.000139938
19,2061.734914313,1.004638964
20,2061.755346497,1.010389692
21,2061.77577868,1.01720022
22,2061.796210863,1.0231823740000001
23,2061.816643045,1.028795185
24,2061.8370752270002,1.03432733
25,2061.857507409,1.037287295
26,2061.87793949,1.03860777
27,2061.89837177,1.040590072
28,2061.91880395,1.043404802
29,2061.93923613,1.046307865
30,2061.959668309,1.049512097
31,2061.980100488,1.0515002
32,2062.000532766,1.051836423
33,2062.020964844,1.05290434
34,2062.041397021,1.05381829
35,2062.061829298,1.05464348
36,2062.082261374,1.055367045
37,2062.10269355,1.0551099259999999
38,2062.123125826,1.054284347
39,2062.143558001,1.054550916
40,2062.163990076,1.0535918640000002
41,2062.225286597,1.056554118
42,2062.245718869,1.056481691
43,2062.2661510420003,1.055842129
44,2062.2865831139998,1.05584499
45,2062.307015385,1.05562721
46,2062.327447556,1.056217757
47,2062.3478798270003,1.054733544
48,2062.3683118970002,1.053346294
49,2062.388744067,1.054195161
50,2062.409176336,1.053666235
51,2062.429608405,1.052036572
52,2062.450040573,1.0510592140000001
53,2062.470472741,1.050838474
54,2062.4909049079997,1.050310141
55,2062.511337075,1.049082598
56,2062.531769241,1.047784621
57,2062.5522014079997,1.047196126
58,2062.572633573,1.046873518
59,2062.593065738,1.045100946
60,2062.613497903,1.043670759
61,2062.633930067,1.0429163129999999
62,2062.654362331,1.0416479379999999
63,2062.674794394,1.041615473
64,2062.695226657,1.041161958
65,2062.71565882,1.03726889
66,2062.736090882,1.031654106
67,2062.756523143,1.025450467
68,2062.776955304,1.020817901
69,2062.797387365,1.013128563
70,2062.817819625,1.011913518
71,2062.838251785,1.011844422
72,2062.858683844,1.011593588
73,2062.879116103,1.015276247
74,2062.8995482620003,1.012095762
75,2062.91998032,1.01036067
76,2062.940412577,1.009392778
77,2062.960844734,1.008774648
78,2062.981276891,1.008714809
79,2063.001709047,1.010230545
80,2063.022141203,1.010241882
81,2063.042573358,1.009848378
82,2063.063005513,1.009690205
83,2063.083437667,1.009459435
84,2063.103869921,1.009228202
85,2063.124302075,1.008815308
86,2063.144734128,1.008615179
87,2063.165166381,1.008519509
88,2063.1855985320003,1.0089246170000001
89,2063.206030584,1.009336505
90,2063.226462836,1.00958304
91,2063.246894886,1.009943236
92,2063.267327037,1.01156023
93,2063.287759287,1.012528644
94,2063.308191336,1.011236095
95,2063.328623485,1.01170067
96,2063.349055734,1.0116581390000001
97,2063.3694877820003,1.011055645
98,2063.38991993,1.010419967
99,2063.4103521770003,1.0095589790000001
100,2063.430784224,1.009009013
101,2063.45121637,1.008476876
102,2063.471648616,1.007225536
103,2063.492080762,1.006200958
104,2063.512512907,1.004576505
105,2063.532945051,1.002663052
106,2063.553377196,1.000729843
107,2063.573809339,0.998239753
108,2063.5942414829997,0.995488622
109,2063.6146736260002,0.991024902
110,2063.6351058679998,0.987297309
111,2063.6964022929997,0.988858612
112,2063.716834333,0.98825751
113,2063.737266474,0.987392305
114,2063.757698713,0.9853624209999999
115,2063.778130752,0.982468233
116,2063.798562891,0.978434088
117,2063.81899513,0.974093428
118,2063.839427168,0.9697924309999999
119,2063.859859305,0.966435542
120,2063.880291542,0.9639330909999999
121,2063.900723579,0.95933135
122,2063.921155815,0.949790024
123,2063.941587951,0.941724318
124,2063.962019986,0.930980075
125,2063.982452221,0.926377322
126,2064.002884356,0.924103386
127,2064.02331639,0.920797755
128,2064.043748624,0.9174971540000001
129,2064.064180757,0.9155319009999999
130,2064.084612789,0.914102484
131,2064.105045022,0.913836265
132,2064.125477154,0.914515073
133,2064.554551821,0.924859338
134,2064.574984043,0.924377955
135,2064.595416165,0.9229613240000001
136,2064.615848187,0.9223674590000001
137,2064.636280408,0.9214874359999999
138,2064.656712528,0.921552962
139,2064.738440905,0.926330056
140,2064.758873124,0.928260945
141,2064.7793051420003,0.931484185
142,2064.799737359,0.933884088
143,2064.820169476,0.9390853459999999
144,2064.840601593,0.9426320340000001
145,2064.861033709,0.946332525
146,2064.922330055,0.9551566979999999
147,2064.942762169,0.959343618
148,2064.963194284,0.964235666
149,2064.983626497,0.968948754
150,2065.00405851,0.973432793
151,2065.024490623,0.978118349
152,2065.044922835,0.982687498
153,2065.065354847,0.9871274520000001
154,2065.085786958,0.9907712670000001
155,2065.106219169,0.9941746109999999
156,2065.12665118,0.996620343
157,2065.14708329,0.9992920890000001
158,2065.1675155,1.002537191
159,2065.187947509,1.0040218909999998
160,2065.208379718,1.004840636
161,2065.228811826,1.006932419
162,2065.249243834,1.009316776
163,2065.269676042,1.01190266
164,2065.290108149,1.013677845
165,2065.310540255,1.015517698
166,2065.330972361,1.01708839
167,2065.351404467,1.01908622
168,2065.3718365729997,1.021220544
169,2065.3922686779997,1.024499713
170,2065.4127007820002,1.0270429
171,2065.433132886,1.028703179
172,2065.45356499,1.031297688
173,2065.473997093,1.033894203
174,2065.494429096,1.03622627
175,2065.5148612979997,1.038060481
176,2065.5352934,1.042672203
177,2065.555725402,1.042816307
178,2065.576157603,1.043505526
179,2065.596589704,1.04482269
180,2065.657886003,1.070215216
181,2065.678318202,1.06198421
182,2065.698750201,1.055798317
183,2065.719182299,1.049671735
184,2065.7396144960003,1.047554388
185,2065.7600464929997,1.048967987
186,2065.78047859,1.049497912
187,2065.8009107870002,1.05012505
188,2065.821342883,1.051238847
189,2065.841774879,1.051166697
190,2065.862207074,1.051263872
191,2065.882639168,1.0520029229999999
192,2065.903071163,1.053381883
193,2065.923503356,1.0545100490000001
194,2065.94393545,1.055936685
195,2065.964367443,1.057039442
196,2065.984799635,1.058869274
197,2066.005231727,1.060800013
198,2066.025663719,1.063431173
199,2066.046095911,1.0644802690000001
200,2066.0665280010003,1.065448273
201,2066.0869601920003,1.066866684
202,2066.14825636,1.068312953
203,2066.168688449,1.069983043
204,2066.1891205379998,1.070757461
205,2066.209552626,1.071707318
206,2066.229984713,1.072737917
207,2066.2504168,1.074172917
208,2066.2708488870003,1.0753978290000001
209,2066.291280973,1.076652998
210,2066.311713059,1.077598221
211,2066.332145244,1.077869149
212,2066.393441498,1.078039792
213,2066.4138734820003,1.080427564
214,2066.434305565,1.080988503
215,2066.454737748,1.082237812
216,2066.47516973,1.084106142
217,2066.495601812,1.0852491579999999
218,2066.516033994,1.086553868
219,2066.536465975,1.089094878
220,2066.556898156,1.090360928
221,2066.577330236,1.09147225
222,2066.597762216,1.0940881820000001
223,2066.618194395,1.095546447
224,2066.638626475,1.097395973
225,2066.659058553,1.100850622
226,2066.679490631,1.103744459
227,2066.699922709,1.105834229
228,2066.720354787,1.108649721
229,2066.740786864,1.1107304340000002
230,2066.76121894,1.112992789
231,2066.781651016,1.114308444
232,2066.8020831920003,1.116033758
233,2066.8225151670003,1.120748238
234,2066.863379317,1.1171161029999999
235,2066.883811391,1.1177092290000001
236,2066.904243464,1.117588321
237,2066.924675638,1.11890266
238,2066.94510761,1.120938129
239,2066.965539583,1.1227860440000001
240,2066.985971754,1.124979161
241,2067.006403826,1.1269224009999999
242,2067.026835997,1.1292089109999999
243,2067.0472679679997,1.131095269
244,2067.0677000379997,1.133694725
245,2067.088132208,1.1363734620000001
246,2067.108564178,1.139557516
247,2067.128996247,1.142315143
248,2067.149428415,1.144383803
249,2067.169860483,1.145592891
250,2067.190292451,1.148810643
251,2067.210724619,1.1484207309999999
252,2067.231156686,1.148823052
253,2067.251588653,1.147253353
254,2067.272020819,1.1462517620000001
255,2067.292452884,1.144479183
256,2067.31288485,1.1442436459999998
257,2067.353749079,1.151646752
258,2067.394613207,1.154245105
259,2067.41504527,1.1562938170000001
260,2067.435477233,1.157999212
261,2067.455909395,1.159807169
262,2067.496773619,1.163603601
263,2067.51720558,1.16555534
264,2067.537637641,1.169040802
265,2067.558069801,1.1717271409999999
266,2067.578501761,1.173939695
267,2067.598933821,1.175024569
268,2067.61936588,1.176503786
269,2067.6397980379998,1.178299663
270,2067.660229997,1.177586623
271,2067.680662055,1.177025936
272,2067.701094112,1.174875568
273,2067.721526169,1.172505653
274,2067.7419583260003,1.170558892
275,2067.762390282,1.168609658
276,2067.7828223379997,1.176116482
277,2067.8032544929997,1.1938294729999999
278,2067.864550657,1.177783856
279,2067.884982611,1.1796621440000001
280,2067.905414764,1.181317894
281,2067.925846817,1.182272417
282,2067.94627877,1.18393389
283,2067.966710922,1.185050276
284,2067.987142974,1.188044109
285,2068.028007076,1.1894002879999999
286,2068.130167324,1.213362185
287,2068.150599473,1.208130012
288,2068.171031421,1.197582277
289,2068.191463469,1.19049991
290,2068.211895616,1.18422334
291,2068.2323275629997,1.184242625
292,2068.252759609,1.181898692
293,2068.273191755,1.180809023
294,2068.2936237,1.182172153
295,2068.314055746,1.180347533
296,2068.334487891,1.179871575
297,2068.354919835,1.1796466909999999
298,2068.375351979,1.1793299720000001
299,2068.395783922,1.1803413040000001
300,2068.416215966,1.181919931
301,2068.436648109,1.1811054029999999
302,2068.457080051,1.181379773
303,2068.477512093,1.1807268690000001
304,2068.497944234,1.179770913
305,2068.518376176,1.179392897
306,2068.5388082160002,1.179042973
307,2068.559240357,1.178413805
308,2068.579672397,1.178105457
309,2068.600104336,1.1767937370000001
310,2068.620536475,1.174711162
311,2068.6409685139997,1.170234692
312,2068.661400452,1.167928695
313,2068.68183259,1.1645729459999998
314,2068.7022646279997,1.162247623
315,2068.722696565,1.160696707
316,2068.743128702,1.15937623
317,2068.763560738,1.158131035
318,2068.783992874,1.154246798
319,2068.845288979,1.15052959
320,2068.8657209129997,1.148684743
321,2068.886152947,1.145593544
322,2068.9065850810002,1.1393853520000001
323,2068.927017014,1.133158275
324,2068.947449047,1.1260208459999999
325,2068.967881179,1.119118007
326,2068.988313211,1.111932383
327,2069.008745142,1.104638255
328,2069.0291772729997,1.097053338
329,2069.049609304,1.089839086
330,2069.0700412339997,1.085081558
331,2069.090473364,1.080762593
332,2069.110905294,1.079445485
333,2069.131337323,1.081721385
334,2069.151769451,1.0817480659999998
335,2069.17220148,1.078588031
336,2069.192633407,1.077841786
337,2069.213065535,1.078642932
338,2069.2334974620003,1.074248719
339,2069.253929589,1.065154147
340,2069.274361615,1.055012989
341,2069.315225667,1.042149487
342,2069.335657692,1.035317257
343,2069.356089616,1.031581045
344,2069.376521741,1.027323306
345,2069.396953764,1.020930246
346,2069.417385788,1.015728934
347,2069.437817811,1.0100721190000002
348,2069.458249834,1.007083518
349,2069.478681856,1.003074689
350,2069.4991138779997,1.009115998
351,2069.519545899,1.001230923
352,2069.5808419620002,0.994243832
353,2069.6012739820003,0.995216807
354,2069.621706101,0.997245429
355,2069.64213802,0.997784784
356,2069.662570139,0.998943365
357,2069.683002157,1.000218487
358,2069.703434075,0.9983228040000001
359,2069.723866193,0.999827928
360,2069.74429821,1.0008157359999998
361,2069.7647301270003,1.000286207
362,2069.785162243,1.00018002
363,2069.805594259,0.9982772540000001
364,2069.84645829,0.988007955
365,2069.866890204,0.978984408
366,2069.887322319,0.9743723259999999
367,2069.928186346,1.002745558
368,2069.94861826,1.013719163
369,2069.9690503720003,1.0135257359999998
370,2069.989482385,1.012258569
371,2070.0099142970003,1.01393496
372,2070.091642441,1.0032881409999999
373,2070.112074451,1.009416068
374,2070.132506561,1.012292127
375,2070.152938471,1.012909018
376,2070.173370479,1.012115144
377,2070.193802588,1.011058494
378,2070.2142344960002,1.011169763
379,2070.234666504,1.010603438
380,2070.255098611,1.010043249
381,2070.275530518,1.010163006
382,2070.295962524,1.009782223
383,2070.316394631,1.010082324
384,2070.336826536,1.011284682
385,2070.357258542,1.01367029
386,2070.3776906470002,1.014271485
387,2070.398122651,1.015868097
388,2070.418554556,1.017263836
389,2070.438986659,1.0196483090000001
390,2070.4594186629997,1.023140419
391,2070.479850566,1.026627289
392,2070.5002826689997,1.028980817
393,2070.541146773,1.038578463
394,2070.582010575,1.044470614
395,2070.602442676,1.047390875
396,2070.6228746760003,1.050389953
397,2070.643306576,1.0509271690000002
398,2070.663738675,1.052380602
399,2070.704602574,1.056378353
400,2070.725034672,1.059584852
401,2070.74546667,1.063545258
402,2070.765898668,1.06667535
403,2070.806762662,1.0700424179999999
404,2070.827194658,1.070570528
405,2070.847626654,1.071476849
406,2070.888490645,1.067022653
407,2070.90892274,1.06515373
408,2070.929354635,1.062254929
409,2070.949786729,1.074636581
410,2070.990650616,1.115286963
411,2071.031514701,1.0665070859999999
412,2071.051946594,1.0670266
413,2071.072378685,1.0662001159999999
414,2071.092810677,1.06761564
415,2071.133674659,1.067717008
416,2071.154106649,1.067641726
417,2071.174538539,1.066555904
418,2071.1949706279997,1.064960462
419,2071.215402618,1.062009054
420,2071.235834606,1.059402378
421,2071.337994545,1.056428897
422,2071.358426531,1.054658542
423,2071.378858517,1.053634995
424,2071.399290503,1.05189194
425,2071.419722588,1.05219807
426,2071.440154473,1.0518618990000002
427,2071.481018542,1.050644197
428,2071.501450425,1.049502881
429,2071.542314492,1.047116996
430,2071.583178357,1.046911832
431,2071.603610439,1.045952941
432,2071.62404232,1.045404032
433,2071.644474301,1.044488138
434,2071.664906382,1.044247478
435,2071.685338262,1.042570652
436,2071.705770242,1.041894956
437,2071.726202322,1.0403703359999998
438,2071.76706628,1.038573245
439,2071.787498259,1.0379781609999998
440,2071.807930237,1.0362891379999999
441,2071.8487941920002,1.056651258
442,2071.869226169,1.0555788640000001
443,2071.889658246,1.054848206
444,2071.910090122,1.0533263
445,2071.930522098,1.0567438009999999
446,2071.950954173,1.056555004
447,2071.9713860479997,1.0558627440000001
448,2072.053113945,1.05464094
449,2072.073545918,1.045348175
450,2072.093977891,1.039740589
451,2072.1144098629998,1.036351673
452,2072.134841835,1.034474549
453,2072.155273807,1.028943333
454,2072.175705778,1.023472995
455,2072.1961377489997,1.023554848
456,2072.23700179,1.019804938
457,2072.25743376,1.0171234059999998
458,2072.2778656289997,1.0132784259999998
459,2072.2982976979997,1.013420532
460,2072.3187296670003,1.014462826
461,2072.339161535,1.016982435
462,2072.3595936029997,1.01561202
463,2072.3800255710003,1.014216767
464,2072.400457438,1.012955488
465,2072.420889505,1.0122057009999998
466,2072.4413214710003,1.01330895
467,2072.461753337,1.015070597
468,2072.502617368,1.006165055
469,2072.5230492329997,1.006507175
470,2072.5434812979997,1.003646283
471,2072.563913262,0.99786493
472,2072.584345226,0.998344563
473,2072.604777189,0.999626183
474,2072.625209153,0.998894257
475,2072.645641215,0.9962332540000001
476,2072.666073078,0.992802124
477,2072.68650504,0.991916335
478,2072.706937101,0.991156288
479,2072.747800923,0.997136371
480,2072.768232984,1.0021480740000002
481,2072.7886649439997,1.001083075
482,2072.8295288629997,0.9858178870000001
483,2072.870392681,0.9781434440000001
484,2072.931688555,0.974596256
485,2072.9521206120003,0.97641185
486,2073.033848337,0.978449205
487,2073.0542803920002,0.979672518
488,2073.074712348,0.9802852409999999
489,2073.0951443020003,0.980808665
490,2073.115576256,0.982412725
491,2073.156440164,0.976290239
492,2073.176872117,0.97295839
493,2073.19730407,0.9710618120000001
494,2073.258599926,0.966537788
495,2073.2790318770003,0.9630246109999999
496,2073.299463928,0.9616038370000001
497,2073.319895779,0.959681197
498,2073.340327729,0.956310842
499,2073.360759779,0.951236747
500,2073.3811916279997,0.948821459
501,2073.401623577,0.947890206
502,2073.422055526,0.944230382
503,2073.442487474,0.9390539840000001
504,2073.462919523,0.933697507
505,2073.48335137,0.93229714
506,2073.503783317,0.933848508
507,2073.524215364,0.93067405
508,2073.544647211,0.9289396059999999
509,2073.565079157,0.927263362
510,2073.585511203,0.927616537
511,2073.605943149,0.929788015
512,2073.626374994,0.9286552929999999
513,2073.646807039,0.92178981
514,2073.667238983,0.928405218
515,2073.687670827,0.9321061420000001
516,2073.748966657,0.9357912890000001
517,2073.7693987,0.9382229990000001
518,2073.789830641,0.9374105770000001
519,2073.830694525,0.939489822
520,2073.851126466,0.94037176
521,2073.871558507,0.9379015
522,2073.891990347,0.937418009
523,2073.912422287,0.940831176
524,2073.9328543270003,0.944655763
525,2073.994150144,0.944482272
526,2074.014581982,0.946572063
527,2074.03501392,0.948952383
528,2074.0554459570003,0.950427366
529,2074.075877895,0.952295925
530,2074.096309732,0.957024689
531,2074.116741768,0.96229662
532,2074.137173604,0.9686287029999999
533,2074.15760554,0.97534482
534,2074.178037575,0.9802154479999999
535,2074.239333379,1.00556759
536,2074.259765213,1.002427749
537,2074.2801971470003,0.999153787
538,2074.30062918,0.9983709940000001
539,2074.321061013,1.0014477309999998
540,2074.341493046,1.006109261
541,2074.38235681,1.0116001079999999
542,2074.423220772,1.017588158
543,2074.4436527029998,1.023386736
544,2074.464084633,1.026911782
545,2074.484516563,1.0291685529999999
546,2074.504948493,1.030506371
547,2074.525380422,1.034965457
548,2074.545812351,1.03863378
549,2074.566244279,1.044223065
550,2074.586676308,1.050500049
551,2074.607108136,1.053651253
552,2074.6275400629997,1.056256181
553,2074.647972091,1.0580362559999998
554,2074.668403918,1.060441529
555,2074.70926787,1.06143119
556,2074.729699696,1.0642606959999998
557,2074.750131721,1.063716953
558,2074.770563646,1.064248718
559,2074.790995471,1.070929009
560,2074.811427495,1.073457622
561,2074.831859419,1.076545619
562,2074.852291243,1.078425729
563,2074.872723266,1.084045191
564,2074.8931550889997,1.086238949
565,2074.9135870120003,1.091712407
566,2074.954450856,1.116059541
567,2074.974882777,1.114218575
568,2074.995314799,1.10228414
569,2075.01574672,1.098154724
570,2075.05661056,1.099043814
571,2075.07704248,1.096837578
572,2075.0974742989997,1.101839675
573,2075.1179063189998,1.10787262
574,2075.138338237,1.110208971
575,2075.158770256,1.109436301
576,2075.179202074,1.109567059
577,2075.199633991,1.11180858
578,2075.2200660089998,1.115734351
579,2075.240497825,1.117701307
580,2075.260929742,1.117361915
581,2075.301793574,1.116964278
582,2075.32222549,1.120028395
583,2075.342657505,1.121150388
584,2075.36308932,1.11880883
585,2075.383521235,1.129419175
586,2075.403953249,1.111286902
587,2075.465248989,1.127805476
588,2075.4856809020002,1.131191662
589,2075.506112715,1.132876537
590,2075.5265447270003,1.131109998
591,2075.546976639,1.137589937
592,2075.56740855,1.142976912
593,2075.5878404610003,1.142958883
594,2075.608272372,1.144675306
595,2075.628704282,1.148973899
596,2075.6491361920002,1.152859504
597,2075.71043192,1.149395447
598,2075.730863729,1.15421114
599,2075.751295737,1.166351065
600,2075.771727645,1.178956947
601,2075.792159453,1.1791712
602,2075.81259146,1.160394232
603,2075.833023367,1.155753848
604,2075.853455273,1.155949667
605,2075.87388718,1.152080281
606,2075.894319086,1.156650253
607,2075.955614801,1.16444272
608,2075.976046806,1.179515363
609,2075.99647871,1.1861856590000002
610,2076.016910514,1.184565374
611,2076.037342517,1.173814999
612,2076.05777442,1.167821205
613,2076.078206223,1.165084299
614,2076.0986382260003,1.165721334
