,BJD - 2454833, Corrected Flux
0,2061.30588108,1.1271886
1,2061.32631339,1.126224521
2,2061.34674559,1.126394103
3,2061.3671777,1.124251278
4,2061.38761,1.126309693
5,2061.40804221,1.127025524
6,2061.42847451,1.127526102
7,2061.48977113,1.098299129
8,2061.51020323,1.096988214
9,2061.55106773,1.092744718
10,2061.57149993,1.093049075
11,2061.59193203,1.092240007
12,2061.61236433,1.091867321
13,2061.63279653,1.090943636
14,2061.65322863,1.091321463
15,2061.67366093,1.094001754
16,2061.69409313,1.088432679
17,2061.71452533,1.086213748
18,2061.73495753,1.08725671
19,2061.75538972,1.085033593
20,2061.77582192,1.084320185
21,2061.79625412,1.081612822
22,2061.83711851,1.075109894
23,2061.8575507,1.072333719
24,2061.8779828,1.068641661
25,2061.89841509,1.064488691
26,2061.91884729,1.060307341
27,2061.93927948,1.056172241
28,2061.95971167,1.050030893
29,2061.98014386,1.046750937
30,2062.00057616,1.042949136
31,2062.02100825,1.038906621
32,2062.04144044,1.037980456
33,2062.06187273,1.034232387
34,2062.08230482,1.029508817
35,2062.10273701,1.026739324
36,2062.1231693,1.024493872
37,2062.14360148,1.022930357
38,2062.16403357,1.021058444
39,2062.22533013,1.01765218
40,2062.24576242,1.019447069
41,2062.2661946,1.018393449
42,2062.28662669,1.018031401
43,2062.30705898,1.019235359
44,2062.32749116,1.017380202
45,2062.34792344,1.01677176
46,2062.36835553,1.016605152
47,2062.38878771,1.012550508
48,2062.40921999,1.009059854
49,2062.42965207,1.007711475
50,2062.45008426,1.004791567
51,2062.47051644,1.004055546
52,2062.49094862,1.001353326
53,2062.5113808,0.99917101
54,2062.55224516,0.99719513
55,2062.57267734,0.997006114
56,2062.59310951,0.995901044
57,2062.61354169,0.995221479
58,2062.63397387,0.992249269
59,2062.65440615,0.990480386
60,2062.67483822,0.989848192
61,2062.6952705,0.989727324
62,2062.71570268,0.989895639
63,2062.73613475,0.988714824
64,2062.75656703,0.989143491
65,2062.7769992,0.987451909
66,2062.79743127,0.985866917
67,2062.81786355,0.981851202
68,2062.83829572,0.981074
69,2062.85872779,0.978796122
70,2062.87916007,0.978222583
71,2062.89959224,0.977364293
72,2062.92002431,0.978378244
73,2062.96088875,0.976664026
74,2062.98132092,0.974665534
75,2063.00175309,0.973450944
76,2063.02218526,0.974782069
77,2063.04261743,0.9783871
78,2063.06304959,0.978992913
79,2063.08348176,0.977994772
80,2063.10391403,0.97609191
81,2063.1243462,0.975764036
82,2063.14477826,0.974670184
83,2063.16521053,0.97278665
84,2063.18564269,0.972354564
85,2063.20607476,0.971673749
86,2063.22650702,0.97128705
87,2063.24693909,0.971171017
88,2063.26737125,0.969355822
89,2063.28780351,0.969707338
90,2063.30823558,0.971118084
91,2063.32866774,0.972422372
92,2063.3491,0.975928129
93,2063.36953206,0.974732958
94,2063.38996422,0.976753488
95,2063.41039648,0.974632861
96,2063.43082854,0.970974927
97,2063.4512607,0.969648599
98,2063.47169296,0.966668789
99,2063.49212512,0.9613188
100,2063.51255728,0.960624258
101,2063.53298944,0.959726928
102,2063.55342159,0.959252761
103,2063.57385375,0.959745893
104,2063.59428591,0.95919188
105,2063.61471806,0.959549482
106,2063.63515032,0.961308593
107,2063.69644678,0.963445919
108,2063.71687883,0.960789393
109,2063.75774324,0.958189159
110,2063.77817529,0.960787494
111,2063.79860745,0.96243113
112,2063.8190397,0.963157937
113,2063.83947175,0.965535119
114,2063.8599039,0.967860587
115,2063.88033615,0.967626879
116,2063.92120045,0.961113139
117,2063.9416326,0.960805904
118,2063.96206464,0.96544841
119,2063.98249689,0.968020937
120,2064.00292904,0.972956247
121,2064.02336109,0.970374851
122,2064.04379333,0.969802266
123,2064.06422548,0.969561071
124,2064.08465752,0.971333042
125,2064.10508977,0.970790998
126,2064.12552191,0.969562987
127,2064.55459685,0.973821698
128,2064.57502909,0.970685021
129,2064.59546122,0.967185596
130,2064.61589326,0.962112542
131,2064.63632549,0.956813363
132,2064.65675762,0.952429018
133,2064.73848605,0.939013635
134,2064.75891828,0.941807928
135,2064.77935032,0.941447495
136,2064.79978255,0.940602048
137,2064.82021467,0.938810433
138,2064.8406468,0.937670232
139,2064.86107893,0.936093232
140,2064.92237532,0.943141069
141,2064.94280744,0.942478294
142,2064.9836718,0.932250113
143,2065.00410382,0.930461196
144,2065.02453595,0.929750398
145,2065.04496817,0.925934756
146,2065.0654002,0.918055635
147,2065.08583232,0.910802714
148,2065.10626455,0.90898999
149,2065.12669657,0.906852445
150,2065.14712869,0.910692602
151,2065.16756092,0.915888961
152,2065.18799294,0.920245779
153,2065.20842516,0.919413328
154,2065.22885728,0.920319597
155,2065.2492893,0.920523686
156,2065.26972152,0.919514339
157,2065.29015364,0.916825255
158,2065.31058576,0.910902558
159,2065.33101788,0.906551034
160,2065.35145,0.902966107
161,2065.37188212,0.902015983
162,2065.39231423,0.897758455
163,2065.41274635,0.891224771
164,2065.43317847,0.886747752
165,2065.45361058,0.879793834
166,2065.4740427,0.874545268
167,2065.49447471,0.868720468
168,2065.51490693,0.861232866
169,2065.53533904,0.856875555
170,2065.55577106,0.851074501
171,2065.57620327,0.847233785
172,2065.59663538,0.844106488
173,2065.65793172,0.845035281
174,2065.67836393,0.849503112
175,2065.69879594,0.855633974
176,2065.71922805,0.86155597
177,2065.73966027,0.867252057
178,2065.76009227,0.872604242
179,2065.78052438,0.879618994
180,2065.80095659,0.886146525
181,2065.8213887,0.896780139
182,2065.84182071,0.905441585
183,2065.86225292,0.91063574
184,2065.88268502,0.914978775
185,2065.90311703,0.918332781
186,2065.92354924,0.919499364
187,2065.94398134,0.921425016
188,2065.96441335,0.923028446
189,2065.98484555,0.924136734
190,2066.00527766,0.925462735
191,2066.02570966,0.927718723
192,2066.04614187,0.931420116
193,2066.06657397,0.936802305
194,2066.08700617,0.942062612
195,2066.14830238,0.957308256
196,2066.16873448,0.960938987
197,2066.18916658,0.966831216
198,2066.20959868,0.974969028
199,2066.23003078,0.977241728
200,2066.25046288,0.97299923
201,2066.27089498,0.979119218
202,2066.29132708,0.977010283
203,2066.33219138,0.974613489
204,2066.39348767,0.983572525
205,2066.41391966,0.984166484
206,2066.43435176,0.982517885
207,2066.45478395,0.983518404
208,2066.47521595,0.981922898
209,2066.49564804,0.98249118
210,2066.51608024,0.982428567
211,2066.53651223,0.987275012
212,2066.55694442,0.983395967
213,2066.57737652,0.982831094
214,2066.59780851,0.984626509
215,2066.6182407,0.988340339
216,2066.63867279,0.989650889
217,2066.65910488,0.995174656
218,2066.67953697,0.999771038
219,2066.69996906,1.005511981
220,2066.72040115,1.011958345
221,2066.74083324,1.020215386
222,2066.76126533,1.028129556
223,2066.78169742,1.03757958
224,2066.80212961,1.051198069
225,2066.8225616,1.059749436
226,2066.86342577,1.081886439
227,2066.88385785,1.087475386
228,2066.90428994,1.091247275
229,2066.92472213,1.0945829
230,2066.94515411,1.096487571
231,2066.9655861,1.098684735
232,2066.98601828,1.100776438
233,2067.00645036,1.102138334
234,2067.02688255,1.104788847
235,2067.04731453,1.106147756
236,2067.06774661,1.108608052
237,2067.0881788,1.106100311
238,2067.10861078,1.104926827
239,2067.12904286,1.105387734
240,2067.14947504,1.104446696
241,2067.16990712,1.102899986
242,2067.1903391,1.101310596
243,2067.21077128,1.101599782
244,2067.23120336,1.101664464
245,2067.25163534,1.102593908
246,2067.27206751,1.10427608
247,2067.29249959,1.105309807
248,2067.31293157,1.108493428
249,2067.35379582,1.108907477
250,2067.3742278,1.107744369
251,2067.39465998,1.107572436
252,2067.41509205,1.105308652
253,2067.43552403,1.104366806
254,2067.4559562,1.106636981
255,2067.47638827,1.105847574
256,2067.49682045,1.105518441
257,2067.51725242,1.103919166
258,2067.5376845,1.102715056
259,2067.55811667,1.100651342
260,2067.57854864,1.099935315
261,2067.59898071,1.096582775
262,2067.61941278,1.094347732
263,2067.63984495,1.092571936
264,2067.66027692,1.09170168
265,2067.68070899,1.090923851
266,2067.70114106,1.090784745
267,2067.72157313,1.093944877
268,2067.7420053,1.096498
269,2067.76243727,1.098199366
270,2067.78286934,1.099860496
271,2067.80330151,1.099924686
272,2067.86459771,1.094173772
273,2067.88502967,1.094157222
274,2067.90546184,1.094909224
275,2067.9258939,1.09542728
276,2067.94632587,1.094563231
277,2067.96675803,1.094725297
278,2067.98719009,1.093397282
279,2068.00762216,1.09347545
280,2068.02805422,1.090923532
281,2068.04848628,1.089398504
282,2068.13021453,1.090755454
283,2068.15064669,1.093466472
284,2068.17107865,1.095260928
285,2068.19151071,1.094253384
286,2068.21194287,1.094490579
287,2068.23237483,1.094374769
288,2068.25280689,1.094086318
289,2068.27323904,1.095104459
290,2068.293671,1.094957931
291,2068.31410306,1.094471751
292,2068.33453521,1.096204449
293,2068.35496717,1.099832023
294,2068.37539933,1.099957625
295,2068.39583128,1.097766386
296,2068.41626334,1.096676006
297,2068.43669549,1.095284149
298,2068.45712745,1.097081612
299,2068.4775595,1.097750544
300,2068.49799165,1.099215081
301,2068.51842361,1.108212652
302,2068.53885566,1.105554103
303,2068.55928781,1.104253635
304,2068.57971986,1.100456431
305,2068.60015181,1.09595029
306,2068.64101602,1.09075137
307,2068.66144797,1.089569952
308,2068.68188012,1.085904754
309,2068.70231216,1.08470574
310,2068.72274411,1.084168661
311,2068.74317626,1.084325352
312,2068.76360831,1.082256729
313,2068.78404046,1.084508874
314,2068.8453366,1.091527917
315,2068.86576854,1.092375543
316,2068.88620059,1.091075541
317,2068.90663274,1.093713481
318,2068.92706468,1.096074374
319,2068.94749672,1.100928223
320,2068.96792887,1.099212736
321,2069.00879286,1.096213919
322,2069.029225,1.094231074
323,2069.04965704,1.093634924
324,2069.07008898,1.09630195
325,2069.09052113,1.094873408
326,2069.11095307,1.094330959
327,2069.13138511,1.092441636
328,2069.15181725,1.091697543
329,2069.17224929,1.090980899
330,2069.19268123,1.097486083
331,2069.21311337,1.105562753
332,2069.25397744,1.112894373
333,2069.27440948,1.10731198
334,2069.31527356,1.109360034
335,2069.33570559,1.108468016
336,2069.35613753,1.105702854
337,2069.37656966,1.106115168
338,2069.3970017,1.109430508
339,2069.41743374,1.107344266
340,2069.43786577,1.098350769
341,2069.4582978,1.093688687
342,2069.47872984,1.092302568
343,2069.49916187,1.09186703
344,2069.51959391,1.093756106
345,2069.60132203,1.096727206
346,2069.62175416,1.093757685
347,2069.6421861,1.092307682
348,2069.66261823,1.092661797
349,2069.68305026,1.093121464
350,2069.70348219,1.089945646
351,2069.72391432,1.09034367
352,2069.74434634,1.091559211
353,2069.76477827,1.091031068
354,2069.7852104,1.089291651
355,2069.80564243,1.093124979
356,2069.82607435,1.092927546
357,2069.84650648,1.096061647
358,2069.86693841,1.097833541
359,2069.88737053,1.098889985
360,2069.90780256,1.099147946
361,2069.92823458,1.097433219
362,2069.94866651,1.098407889
363,2069.96909863,1.100270936
364,2069.98953066,1.10119843
365,2070.09169077,1.099790415
366,2070.11212279,1.101153502
367,2070.13255491,1.103274059
368,2070.15298683,1.105268196
369,2070.17341885,1.108347807
370,2070.21428289,1.10744766
371,2070.23471491,1.105418212
372,2070.25514703,1.107416881
373,2070.27557895,1.107824552
374,2070.29601097,1.107780069
375,2070.336875,1.10365595
376,2070.35730702,1.100168265
377,2070.43903518,1.095563878
378,2070.4594672,1.097639667
379,2070.47989911,1.096651877
380,2070.50033123,1.099238349
381,2070.56162727,1.104222631
382,2070.58205918,1.106945899
383,2070.60249129,1.106975852
384,2070.6229233,1.105524896
385,2070.64335521,1.105329566
386,2070.66378733,1.10588054
387,2070.72508336,1.109693454
388,2070.74551536,1.110316799
389,2070.78637938,1.106861695
390,2070.80681139,1.110839868
391,2070.8272434,1.108795758
392,2070.8476754,1.106651796
393,2070.86810741,1.107303114
394,2070.88853942,1.111950221
395,2070.90897152,1.117703678
396,2070.92940343,1.122398091
397,2070.94983554,1.123484911
398,2070.97026754,1.123020434
399,2071.05199546,1.125983712
400,2071.15415557,1.119603144
401,2071.19501957,1.122348207
402,2071.21545157,1.122663315
403,2071.23588357,1.125028327
404,2071.29717957,1.13356462
405,2071.31761157,1.132000793
406,2071.35847556,1.13615248
407,2071.37890756,1.137486575
408,2071.39933956,1.136537313
409,2071.41977165,1.133097466
410,2071.44020355,1.13528965
411,2071.46063554,1.134402724
412,2071.50149953,1.135749953
413,2071.52193153,1.135647297
414,2071.54236362,1.136028057
415,2071.56279552,1.135813382
416,2071.58322751,1.135700993
417,2071.6036596,1.134501761
418,2071.64452349,1.135985184
419,2071.66495558,1.134193582
420,2071.68538747,1.134661197
421,2071.74668354,1.136696587
422,2071.76711553,1.136885525
423,2071.78754752,1.138300112
424,2071.8284115,1.138696266
425,2071.86927548,1.145091186
426,2071.88970756,1.14308933
427,2071.91013945,1.141673029
428,2071.93057144,1.140608545
429,2071.95100353,1.138921424
430,2071.97143541,1.1449168
431,2072.05316335,1.158053953
432,2072.07359534,1.156555472
433,2072.1144593,1.164004128
434,2072.13489129,1.163388406
435,2072.15532327,1.16166791
436,2072.17575525,1.1626698
437,2072.19618723,1.162556623
438,2072.2370513,1.158963519
439,2072.25748328,1.158528514
440,2072.33921109,1.164292004
441,2072.35964317,1.166120786
442,2072.40050703,1.173116573
443,2072.42093911,1.172298158
444,2072.44137109,1.174331585
445,2072.46180296,1.176053223
446,2072.50266702,1.202932026
447,2072.52309889,1.211899831
448,2072.54353097,1.200047043
449,2072.56396294,1.195696648
450,2072.58439492,1.187082419
451,2072.60482689,1.181128134
452,2072.62525886,1.18158224
453,2072.64569094,1.184903176
454,2072.66612281,1.184793541
455,2072.68655478,1.182250847
456,2072.76828277,1.188519473
457,2072.78871474,1.190941363
458,2072.80914661,1.18738262
459,2072.87044252,1.183592586
460,2072.89087459,1.187806623
461,2072.93173843,1.198667878
462,2072.97260236,1.208461784
463,2072.99303433,1.217221914
464,2073.0134664,1.209224544
465,2073.03389826,1.201522362
466,2073.05433033,1.204291231
467,2073.0747623,1.202772377
468,2073.09519426,1.206524769
469,2073.11562623,1.201737608
470,2073.13605819,1.204088632
471,2073.15649016,1.21146942
472,2073.19735408,1.207394633
473,2073.25864997,1.199325684
474,2073.27908193,1.195196365
475,2073.29951399,1.1955557
476,2073.31994585,1.189855747
477,2073.34037782,1.186966535
478,2073.36080988,1.191750865
479,2073.38124174,1.193052244
480,2073.4016737,1.184933531
481,2073.42210565,1.176334263
482,2073.46296967,1.172602461
483,2073.48340153,1.175928825
484,2073.50383349,1.174557758
485,2073.52426555,1.174267201
486,2073.5446974,1.177204979
487,2073.56512936,1.170488544
488,2073.58556142,1.16764414
489,2073.60599337,1.166641068
490,2073.66728924,1.157041604
491,2073.68772109,1.162491017
492,2073.74901696,1.174738763
493,2073.76944901,1.177016281
494,2073.78988096,1.173170312
495,2073.81031281,1.171769338
496,2073.85117682,1.167526587
497,2073.87160887,1.170539034
498,2073.89204072,1.171137089
499,2073.91247267,1.163472918
500,2073.93290472,1.159414736
501,2073.99420057,1.14223858
502,2074.01463242,1.14617579
503,2074.03506436,1.161529921
504,2074.05549641,1.183468894
505,2074.07592836,1.188456729
506,2074.09636021,1.178739064
507,2074.11679225,1.17741129
508,2074.1372241,1.169132348
509,2074.15765605,1.164707896
510,2074.17808809,1.164439437
511,2074.23938393,1.163781795
512,2074.25981577,1.156387389
513,2074.28024772,1.150131546
514,2074.30067976,1.151276689
515,2074.3211116,1.149062914
516,2074.34154365,1.146769503
517,2074.36197559,1.144659584
518,2074.38240743,1.142555094
519,2074.40283947,1.136196154
520,2074.42327141,1.135775356
521,2074.44370336,1.127900704
522,2074.4641353,1.123185688
523,2074.48456724,1.117668518
524,2074.50499918,1.113726581
525,2074.52543112,1.109971612
526,2074.54586306,1.108840683
527,2074.56629499,1.106430459
528,2074.60715887,1.098108454
529,2074.62759081,1.098598029
530,2074.64802285,1.094813456
531,2074.66845468,1.086282805
532,2074.70931866,1.097294424
533,2074.72975049,1.097201993
534,2074.77061446,1.096954896
535,2074.7910463,1.105386127
536,2074.81147833,1.099169673
537,2074.83191027,1.099872623
538,2074.8523421,1.093313347
539,2074.87277413,1.083995194
540,2074.89320597,1.082121718
541,2074.9136379,1.077966773
542,2074.95450176,1.063246584
543,2074.9749337,1.055562627
544,2074.99536573,1.041020642
545,2075.01579766,1.031470705
546,2075.03622949,1.025625041
547,2075.05666152,1.017142093
548,2075.07709345,1.01063625
549,2075.09752528,1.003388426
550,2075.11795731,0.995547731
551,2075.13838924,0.993117797
552,2075.15882127,0.991877662
553,2075.17925309,0.98801141
554,2075.19968502,0.987398055
555,2075.22011705,0.988426843
556,2075.24054888,0.980212406
557,2075.2609808,0.978754883
558,2075.28141283,0.971702665
559,2075.30184466,0.960053193
560,2075.32227658,0.951227276
561,2075.34270861,0.939138921
562,2075.38357236,0.965604317
563,2075.40400438,0.993432455
564,2075.46530015,0.942165562
565,2075.48573207,0.940759031
566,2075.5061639,0.941422479
567,2075.52659592,0.943762929
568,2075.54702784,0.945139753
569,2075.56745976,0.947051332
570,2075.58789168,0.944770456
571,2075.6083236,0.945897505
572,2075.62875553,0.949765582
573,2075.64918744,0.956247934
574,2075.7104832,1.055461347
575,2075.73091502,1.001465454
576,2075.75134704,0.994386272
577,2075.77177896,0.997813192
578,2075.79221078,1.004045416
579,2075.81264279,1.00044184
580,2075.83307471,1.016721839
581,2075.85350663,1.023955484
582,2075.87393854,1.026229316
583,2075.89437046,1.028245338
584,2075.9556662,1.04953957
585,2075.97609822,1.052533822
586,2075.99653013,1.066862115
587,2076.03739396,1.090077672
588,2076.05782587,1.08878692
589,2076.07825768,1.095704575
590,2076.0986897,1.116027677
591,2076.11912161,1.116510785
592,2076.13955342,1.105802489
593,2076.18041734,1.111258563
594,2076.20084915,1.101636987
595,2076.22128116,1.088991437
596,2076.24171307,1.072690324
597,2076.26214498,1.0708571
598,2076.28257689,1.068490228
599,2076.3030088,1.064398366
600,2076.32344071,1.067861886
601,2076.34387262,1.075958971
602,2076.36430453,1.072059162
603,2076.38473643,1.070346394
604,2076.42560025,1.075430082
605,2076.44603215,1.071858025
606,2076.46646406,1.065923806
607,2076.48689597,1.055606717
608,2076.50732797,1.044297502
609,2076.52775978,1.034382408
610,2076.54819168,1.031450839
611,2076.56862369,1.028160104
612,2076.58905549,1.025321607
613,2076.60948739,1.021841
614,2076.6299194,1.002126392
615,2076.6707831,1.002801796
616,2076.69121511,1.009832163
617,2076.71164691,1.011349306
618,2076.73207881,1.009947065
619,2076.75251081,1.005712504
620,2076.77294261,0.99646992
621,2076.79337461,0.989310265
622,2076.81380651,0.983926708
623,2076.83423841,0.979325304
624,2076.85467031,0.984790014
625,2076.87510221,0.991216799
626,2076.91596611,1.004413667
627,2076.93639791,1.010040447
628,2076.9568298,1.011640713
629,2076.9772618,1.013260736
630,2076.9976936,1.017343808
631,2077.0181255,1.015796541
632,2077.03855739,1.012832495
633,2077.05898929,1.014636745
634,2077.07942118,1.014966532
635,2077.09985308,1.009080349
636,2077.14071677,1.011931804
637,2077.16114876,1.00977246
638,2077.18158066,1.009028294
639,2077.20201265,1.015235138
640,2077.22244445,1.009968068
641,2077.24287634,1.01085195
642,2077.26330833,1.009993254
643,2077.28374012,1.035827321
644,2077.30417202,1.079945579
645,2077.32460401,1.023119099
646,2077.3450359,1.004116767
647,2077.36546769,1.002120445
648,2077.42676336,1.021459576
649,2077.44719535,1.017196852
650,2077.46762724,1.010768953
651,2077.48805903,1.01466547
652,2077.50849102,1.018498428
653,2077.52892291,1.022506784
654,2077.5493547,1.022035994
655,2077.56978668,1.018082383
656,2077.59021857,1.00762629
657,2077.61065056,1.018792535
658,2077.67194622,1.010926699
659,2077.692378,1.006389238
660,2077.71280989,1.005487622
661,2077.73324188,1.000781181
662,2077.75367366,0.995705638
663,2077.77410554,0.993949373
664,2077.79453743,0.993952087
665,2077.81496941,0.992653298
666,2077.8354012,0.993736613
667,2077.85583318,0.99417329
668,2077.93756061,1.00725916
669,2077.95799259,1.011573537
670,2077.99885625,1.004848634
671,2078.01928823,1.004880468
672,2078.03972011,1.001346752
673,2078.06015189,0.996951031
