,BJD - 2454833, Corrected Flux
0,2061.30571928,0.996807077
1,2061.32615153,1.000662529
2,2061.34658368,0.99999001
3,2061.36701573,1.001106388
4,2061.38744797,1.002813821
5,2061.40788012,1.003684265
6,2061.42831237,1.006310162
7,2061.4896088,1.02390025
8,2061.51004085,1.023342665
9,2061.53047299,1.022942999
10,2061.55090523,1.024911493
11,2061.57133738,1.024793668
12,2061.59176942,1.025544881
13,2061.61220166,1.026323293
14,2061.6326338,1.024962218
15,2061.65306585,1.02423418
16,2061.67349809,1.02377989
17,2061.69393023,1.02464325
18,2061.71436237,1.025277587
19,2061.73479451,1.023876519
20,2061.75522665,1.02417084
21,2061.77565878,1.023922736
22,2061.79609092,1.024887939
23,2061.81652306,1.025737102
24,2061.8369552,1.025903053
25,2061.85738734,1.025468367
26,2061.87781937,1.025700913
27,2061.89825161,1.025083395
28,2061.91868374,1.025960769
29,2061.93911588,1.024555165
30,2061.95954801,1.023865771
31,2061.97998015,1.024505108
32,2062.00041238,1.024069662
33,2062.02084441,1.025092674
34,2062.04127655,1.024966174
35,2062.06170878,1.025413915
36,2062.08214081,1.032028047
37,2062.10257294,1.052668637
38,2062.12300518,1.059804528
39,2062.14343731,1.147686595
40,2062.16386934,1.125391713
41,2062.22516572,1.040175332
42,2062.24559795,1.030860608
43,2062.26603008,1.027331652
44,2062.28646211,1.024999442
45,2062.30689434,1.021362976
46,2062.32732646,1.02382238
47,2062.34775869,1.02263812
48,2062.38862284,1.02008828
49,2062.40905507,1.01891929
50,2062.42948709,1.017588072
51,2062.44991922,1.018035569
52,2062.49078346,1.017969076
53,2062.51121559,1.019572408
54,2062.53164771,1.018668998
55,2062.55207983,1.018277408
56,2062.57251195,1.018901361
57,2062.59294407,1.020599524
58,2062.6133762,1.021237758
59,2062.63380831,1.019715062
60,2062.65424054,1.022500527
61,2062.67467256,1.022022895
62,2062.69510477,1.021240046
63,2062.71553689,1.021054306
64,2062.73596891,1.019685607
65,2062.75640113,1.019392775
66,2062.77683325,1.01736153
67,2062.79726526,1.016989246
68,2062.81769748,1.018914211
69,2062.83812959,1.017733845
70,2062.85856161,1.014994457
71,2062.87899383,1.014985908
72,2062.89942594,1.013135598
73,2062.91985796,1.011103524
74,2062.94029017,1.009542628
75,2062.96072228,1.005688197
76,2062.98115439,1.00450614
77,2063.00158651,1.004257405
78,2063.02201862,1.004200394
79,2063.04245073,1.007084473
80,2063.06288284,1.008477745
81,2063.08331495,1.010933559
82,2063.10374716,1.011814234
83,2063.12417927,1.013219784
84,2063.14461128,1.02056739
85,2063.16504349,1.021060989
86,2063.1854756,1.02086693
87,2063.20590761,1.021778157
88,2063.22633982,1.021792736
89,2063.24677182,1.023893253
90,2063.26720393,1.025840908
91,2063.28763614,1.025193984
92,2063.30806814,1.028639039
93,2063.32850025,1.027912846
94,2063.34893246,1.027932029
95,2063.36936446,1.028273005
96,2063.38979656,1.029765062
97,2063.41022877,1.02761488
98,2063.43066077,1.029593701
99,2063.45109287,1.029705537
100,2063.47152508,1.028799186
101,2063.49195718,1.030022546
102,2063.51238928,1.029940803
103,2063.53282138,1.029416658
104,2063.55325348,1.029758345
105,2063.57368558,1.028795559
106,2063.59411768,1.026262833
107,2063.61454978,1.026856515
108,2063.63498198,1.025727947
109,2063.69627828,1.031353987
110,2063.71671028,1.033102497
111,2063.73714237,1.035485905
112,2063.75757457,1.03706272
113,2063.77800656,1.037886291
114,2063.79843866,1.038943571
115,2063.81887086,1.038606603
116,2063.83930285,1.038056661
117,2063.85973495,1.037936768
118,2063.88016714,1.034519066
119,2063.90059913,1.034195727
120,2063.92103133,1.033142362
121,2063.94146342,1.030056099
122,2063.96189541,1.028883714
123,2063.9823276,1.033483147
124,2064.0027597,1.0366321
125,2064.02319169,1.032460095
126,2064.04362388,1.026461892
127,2064.06405597,1.023676811
128,2064.08448796,1.022479981
129,2064.10492015,1.023421587
130,2064.12535224,1.02700795
131,2064.55442601,1.027668611
132,2064.57485819,1.023300058
133,2064.59529027,1.021822632
134,2064.61572225,1.019850396
135,2064.63615442,1.018896487
136,2064.6565865,1.020693924
137,2064.73831471,1.025595613
138,2064.75874689,1.02607754
139,2064.77917886,1.025229763
140,2064.79961104,1.019356162
141,2064.82004311,1.017315679
142,2064.84047519,1.013233343
143,2064.86090726,1.007579715
144,2064.92220348,1.005168103
145,2064.94263555,1.00721006
146,2064.96306762,1.005859913
147,2064.9834998,1.008061907
148,2065.00393177,1.011503999
149,2065.02436384,1.010460846
150,2065.04479601,1.005739063
151,2065.06522798,1.003764444
152,2065.08566005,1.001295529
153,2065.10609221,1.001882391
154,2065.12652418,0.998989506
155,2065.14695625,0.997262626
156,2065.16738842,0.995928621
157,2065.18782039,0.993368198
158,2065.20825255,0.990081186
159,2065.22868462,0.985841506
160,2065.24911659,0.976957032
161,2065.26954875,0.970022388
162,2065.28998082,0.964680387
163,2065.31041288,0.958084216
164,2065.33084495,0.949853303
165,2065.35127701,0.952137941
166,2065.37170907,0.955791975
167,2065.39214114,0.959975605
168,2065.4125732,0.96203447
169,2065.43300526,0.972635369
170,2065.45343732,0.978416141
171,2065.47386938,0.981196378
172,2065.49430134,0.98234513
173,2065.51473351,0.982051731
174,2065.53516557,0.982468573
175,2065.55559752,0.978841235
176,2065.57602968,0.977638605
177,2065.59646174,0.976288048
178,2065.65775792,0.971064551
179,2065.67819008,0.972162277
180,2065.69862203,0.968474606
181,2065.71905409,0.965094922
182,2065.73948624,0.95933747
183,2065.7599182,0.955121334
184,2065.78035026,0.951479757
185,2065.80078241,0.94626764
186,2065.82121446,0.941496566
187,2065.84164642,0.939043493
188,2065.86207857,0.944660071
189,2065.88251063,0.951428526
190,2065.90294258,0.958726612
191,2065.92337473,0.963317286
192,2065.94380678,0.972985856
193,2065.96423873,0.970462734
194,2065.98467089,0.960768703
195,2066.00510294,0.946916318
196,2066.02553489,0.9341845
197,2066.04596704,0.932019042
198,2066.06639908,0.931797587
199,2066.08683123,0.936798461
200,2066.14812728,0.970108173
201,2066.16855933,0.970555721
202,2066.18899137,0.965337387
203,2066.20942342,0.951539526
204,2066.22985547,0.94013638
205,2066.25028751,0.936054022
206,2066.27071956,0.939024033
207,2066.2911516,0.946125347
208,2066.31158365,0.966534052
209,2066.33201579,0.978966765
210,2066.39331192,0.962068614
211,2066.41374387,0.964070922
212,2066.43417591,0.972741942
213,2066.45460805,0.989796721
214,2066.47503999,1.0009427
215,2066.49547203,1.010046946
216,2066.51590417,1.016188917
217,2066.53633611,1.019071854
218,2066.55676825,1.021480994
219,2066.57720029,1.020297965
220,2066.59763223,1.021047794
221,2066.61806437,1.020066634
222,2066.63849641,1.018550098
223,2066.65892844,1.019121466
224,2066.67936048,1.01567899
225,2066.69979252,1.012239794
226,2066.72022456,1.008699376
227,2066.74065659,1.006886924
228,2066.76108863,1.009754578
229,2066.78152066,1.010995728
230,2066.8019528,1.010384152
231,2066.82238473,1.010261205
232,2066.8632488,1.019405378
233,2066.88368083,1.019049294
234,2066.90411287,1.017582858
235,2066.924545,1.018146423
236,2066.94497693,1.01752054
237,2066.96540886,1.017093427
238,2066.98584099,1.017538717
239,2067.00627302,1.016068023
240,2067.02670515,1.01714747
241,2067.04713709,1.018187697
242,2067.06756911,1.016483254
243,2067.08800124,1.020724577
244,2067.10843317,1.019047117
245,2067.1288652,1.01708616
246,2067.14929733,1.016409369
247,2067.16972936,1.011538149
248,2067.19016128,1.011619911
249,2067.21059341,1.012718698
250,2067.23102544,1.014681635
251,2067.25145736,1.016203145
252,2067.27188949,1.017806597
253,2067.29232151,1.026386409
254,2067.31275344,1.036624908
255,2067.35361759,1.031294664
256,2067.37404951,1.030664867
257,2067.39448163,1.030856455
258,2067.41491366,1.029843172
259,2067.43534558,1.028628256
260,2067.4557777,1.026928749
261,2067.47620972,1.027168516
262,2067.49664185,1.025835579
263,2067.51707377,1.024305856
264,2067.53750579,1.019766549
265,2067.55793791,1.017218277
266,2067.57836983,1.014731292
267,2067.59880185,1.011875846
268,2067.61923386,1.012399125
269,2067.63966598,1.013279718
270,2067.6600979,1.01263893
271,2067.68052992,1.012941867
272,2067.70096194,1.012310656
273,2067.72139395,1.01251099
274,2067.74182607,1.024067023
275,2067.76225799,1.033593086
276,2067.78269,1.024603756
277,2067.80312212,1.005877506
278,2067.86441816,1.031491343
279,2067.88485008,1.033885269
280,2067.90528219,1.032564356
281,2067.9257142,1.032283631
282,2067.94614611,1.032014633
283,2067.96657823,1.028461205
284,2067.98701024,1.027211035
285,2068.00744225,1.02573301
286,2068.02787426,1.024818851
287,2068.04830627,1.024120356
288,2068.13003431,1.024815321
289,2068.15046642,1.027753653
290,2068.17089833,1.030631772
291,2068.19133034,1.031964182
292,2068.21176244,1.034717715
293,2068.23219435,1.03492602
294,2068.25262636,1.036717072
295,2068.27305846,1.038569918
296,2068.29349037,1.040237947
297,2068.31392237,1.041374276
298,2068.33435448,1.041675154
299,2068.35478638,1.040707978
300,2068.37521849,1.040323873
301,2068.39565039,1.039243485
302,2068.4160824,1.038123042
303,2068.4365145,1.035285726
304,2068.4569464,1.034888174
305,2068.4773784,1.031964762
306,2068.49781051,1.029205672
307,2068.51824241,1.028493244
308,2068.53867441,1.029382591
309,2068.55910651,1.033402939
310,2068.57953851,1.033348727
311,2068.59997041,1.033341852
312,2068.62040251,1.036513473
313,2068.64083451,1.036144086
314,2068.66126641,1.033161625
315,2068.68169851,1.032049177
316,2068.70213051,1.03051766
317,2068.72256241,1.0307755
318,2068.7429945,1.030469674
319,2068.7634265,1.031904172
320,2068.7838586,1.032255531
321,2068.84515458,1.03401473
322,2068.86558648,1.031234256
323,2068.88601847,1.029968811
324,2068.90645057,1.043724613
325,2068.92688246,1.028441995
326,2068.94731446,1.030358852
327,2068.96774655,1.029671051
328,2068.98817854,1.028415834
329,2069.00861043,1.027066608
330,2069.02904253,1.027436528
331,2069.04947452,1.024655855
332,2069.06990641,1.024229222
333,2069.0903385,1.021739806
334,2069.11077039,1.018699285
335,2069.13120238,1.017220725
336,2069.15163447,1.016086316
337,2069.17206646,1.015499509
338,2069.19249835,1.011930807
339,2069.21293044,1.013592213
340,2069.23336232,1.012355105
341,2069.25379441,1.01203147
342,2069.2742264,1.013236283
343,2069.31509037,1.015215416
344,2069.33552236,1.011147654
345,2069.35595424,1.007253249
346,2069.37638633,1.004877834
347,2069.39681832,1.002837838
348,2069.4172503,1.000821877
349,2069.45811427,1.003156517
350,2069.47854625,1.006167942
351,2069.49897823,1.009265467
352,2069.51941022,1.01008895
353,2069.58070616,1.022108837
354,2069.60113815,1.022072047
355,2069.62157023,1.021042523
356,2069.64200211,1.020324635
357,2069.66243419,1.018603112
358,2069.68286617,1.018329409
359,2069.70329805,1.016101045
360,2069.72373013,1.013569581
361,2069.7441621,1.013456905
362,2069.76459398,1.015132127
363,2069.78502606,1.01631077
364,2069.80545804,1.017754671
365,2069.82588992,1.018091459
366,2069.84632199,1.020932531
367,2069.86675387,1.030964791
368,2069.88718594,1.046124056
369,2069.90761792,1.023075962
370,2069.9280499,1.011436105
371,2069.94848177,1.009844709
372,2069.96891384,1.008977461
373,2069.98934582,1.009082787
374,2070.00977769,1.008065118
375,2070.09150568,1.02350845
376,2070.11193766,1.018227798
377,2070.13236973,1.007169285
378,2070.1528016,0.988891051
379,2070.17323357,0.973310839
380,2070.19366564,0.960035137
381,2070.21409751,0.942578071
382,2070.23452948,0.907577972
383,2070.25496155,0.874152447
384,2070.27539342,0.867439931
385,2070.29582539,0.867565865
386,2070.31625745,0.879419282
387,2070.33668932,0.900069312
388,2070.35712129,0.935762338
389,2070.39798532,0.983297881
390,2070.41841719,0.990470267
391,2070.43884925,0.99316808
392,2070.45928122,0.994453273
393,2070.47971309,0.994717732
394,2070.50014515,0.996762537
395,2070.54100918,0.987852539
396,2070.56144104,0.981652341
397,2070.58187291,0.975089337
398,2070.60230497,0.968591878
399,2070.62273693,0.961593549
400,2070.64316879,0.949647079
401,2070.66360085,0.934533058
402,2070.68403282,0.921732289
403,2070.70446468,0.907051837
404,2070.72489674,0.886189206
405,2070.7453287,0.863330162
406,2070.76576066,0.840715717
407,2070.78619262,0.824282465
408,2070.84748849,0.79405222
409,2070.86792045,0.783927597
410,2070.90878447,0.799765632
411,2070.92921632,0.806673019
412,2070.94964838,0.779090189
413,2070.97008034,0.761906326
414,2071.0313762,0.830468952
415,2071.09267207,0.93500046
416,2071.15396793,0.973862704
417,2071.17439978,0.975006482
418,2071.19483183,0.970391518
419,2071.21526378,0.970909136
420,2071.29699159,0.955522543
421,2071.33785549,0.925319199
422,2071.35828743,0.910634098
423,2071.37871938,0.903526914
424,2071.39915133,0.904281029
425,2071.41958338,0.910093722
426,2071.44001523,0.923662207
427,2071.50131107,0.980057147
428,2071.52174302,0.986492169
429,2071.58303885,1.001890523
430,2071.6034709,1.002090908
431,2071.62390274,1.003639218
432,2071.64433469,1.003890669
433,2071.66476673,1.002420911
434,2071.68519857,1.003231288
435,2071.70563052,1.001012467
436,2071.7464945,1.002514596
437,2071.76692644,1.00183355
438,2071.78735839,0.997791743
439,2071.80779033,0.996373016
440,2071.84865421,0.998766892
441,2071.86908615,0.99200987
442,2071.88951819,0.988912556
443,2071.90995003,0.986561068
444,2071.93038197,0.999046186
445,2071.95081401,0.976776614
446,2071.97124584,0.985048636
447,2072.05297359,1.013056614
448,2072.07340553,1.020992141
449,2072.09383747,1.020199519
450,2072.1142694,1.017921374
451,2072.13470134,1.015530193
452,2072.15513327,1.010346468
453,2072.19599714,1.003699427
454,2072.21642908,1.00463481
455,2072.23686111,1.01007631
456,2072.25729304,1.010666047
457,2072.27772488,1.014027813
458,2072.29815691,1.016826137
459,2072.31858884,1.016256081
460,2072.33902067,1.014368372
461,2072.3594527,1.012348458
462,2072.37988464,1.006573015
463,2072.40031647,0.997784958
464,2072.4207485,0.995628412
465,2072.44118043,0.998200542
466,2072.46161226,0.996787016
467,2072.50247622,0.99898486
468,2072.52290804,0.992980774
469,2072.54334007,0.982477289
470,2072.563772,0.970048559
471,2072.58420393,0.960916786
472,2072.60463586,0.958687325
473,2072.62506778,0.957207891
474,2072.64549981,0.95410275
475,2072.66593164,0.95831484
476,2072.68636356,0.961549498
477,2072.70679559,0.967157074
478,2072.76809136,0.971005696
479,2072.78852329,0.97529259
480,2072.80895511,0.978746026
481,2072.82938713,0.989000356
482,2072.84981896,1.001967371
483,2072.87025088,1.011068084
484,2072.8906829,1.015611193
485,2072.91111472,1.017180852
486,2072.95197867,1.014705185
487,2072.97241049,1.017907473
488,2072.99284241,1.024778358
489,2073.01327443,1.025882484
490,2073.03370625,1.030760906
491,2073.05413827,1.036909773
492,2073.07457019,1.038441291
493,2073.0950021,1.042088129
494,2073.11543402,1.040999834
495,2073.13586594,1.041611763
496,2073.15629786,1.040576591
497,2073.17672978,1.039679541
498,2073.19716169,1.03389891
499,2073.25845744,1.06984902
500,2073.27888936,1.069000123
501,2073.29932137,1.06857857
502,2073.31975319,1.06548549
503,2073.3401851,1.062570558
504,2073.36061712,1.057106471
505,2073.38104893,1.049318177
506,2073.40148085,1.048990744
507,2073.42191276,1.046367463
508,2073.44234467,1.042364957
509,2073.46277668,1.046612248
510,2073.50364041,1.045146745
511,2073.54450423,1.043346657
512,2073.56493614,1.04369836
513,2073.58536815,1.046533379
514,2073.62623187,1.046662236
515,2073.64666388,1.036203047
516,2073.66709579,1.046653255
517,2073.6875276,1.05011161
518,2073.74882332,1.063102281
519,2073.76925533,1.056143092
520,2073.78968724,1.042935106
521,2073.81011905,1.027869735
522,2073.83055105,1.015573165
523,2073.85098296,1.006235558
524,2073.87141496,0.997285054
525,2073.89184677,0.993825826
526,2073.91227867,0.990309522
527,2073.93271068,0.981905344
528,2074.01443819,0.944644633
529,2074.0348701,0.934432749
530,2074.0553021,0.92531703
531,2074.075734,0.917546062
532,2074.0961658,0.906106076
533,2074.1165978,0.897872449
534,2074.13702961,0.891206581
535,2074.15746151,0.882032617
536,2074.23918921,0.855634316
537,2074.25962101,0.844157364
538,2074.28005291,0.833660775
539,2074.3004849,0.819164963
540,2074.3209167,0.7972368
541,2074.3413487,0.777445095
542,2074.3617806,0.752187495
543,2074.38221239,0.723080075
544,2074.40264439,0.687309346
545,2074.42307629,0.649911811
546,2074.44350818,0.620743507
547,2074.46394008,0.597444488
548,2074.48437197,0.576200132
549,2074.50480387,0.556646165
550,2074.52523576,0.539393881
551,2074.54566766,0.525497011
552,2074.56609955,0.511544252
553,2074.58653155,0.498224558
554,2074.60696334,0.492955686
555,2074.62739523,0.480874254
556,2074.66825902,0.471051649
557,2074.7091229,0.490183335
558,2074.72955469,0.498447419
559,2074.74998668,0.504048142
560,2074.77041857,0.510672998
561,2074.79085037,0.540818821
562,2074.81128236,0.579611195
563,2074.83171424,0.602664828
564,2074.85214603,0.616312286
565,2074.87257802,0.635415073
566,2074.89300981,0.64754133
567,2074.9134417,0.644444025
568,2074.95430548,0.623809182
569,2074.97473736,0.619186524
570,2074.99516935,0.62590318
571,2075.01560124,0.639986571
572,2075.03603302,0.652133023
573,2075.05646501,0.665679394
574,2075.0768969,0.683099743
575,2075.09732868,0.701716236
576,2075.11776066,0.723569353
577,2075.13819255,0.74295227
578,2075.15862453,0.762957202
579,2075.17905632,0.788199563
580,2075.1994882,0.813440411
581,2075.21992018,0.826054437
582,2075.24035197,0.82614233
583,2075.26078385,0.82222815
584,2075.28121583,0.805092436
585,2075.30164762,0.767854641
586,2075.3220795,0.730331682
587,2075.34251148,0.666212958
588,2075.36294326,0.617911318
589,2075.38337514,0.595305133
590,2075.40380712,0.583233917
591,2075.46510276,0.649213214
592,2075.48553464,0.688788613
593,2075.50596642,0.730324393
594,2075.5263984,0.774373055
595,2075.54683027,0.81560938
596,2075.56726215,0.865922807
597,2075.58769403,0.916022473
598,2075.60812591,0.960954974
599,2075.62855778,0.981606236
600,2075.64898966,0.998996548
601,2075.71028529,1.069199526
602,2075.73071706,0.986911203
603,2075.75114904,0.963158388
604,2075.77158091,1.021759856
605,2075.79201268,1.018238466
606,2075.83287653,1.025913073
607,2075.85330841,1.02641325
608,2075.87374028,1.022905796
609,2075.89417215,1.019127174
610,2075.95546777,0.983665483
611,2075.97589974,0.992182425
612,2075.99633161,1.03183604
613,2076.01676338,1.025853142
614,2076.03719535,1.02317143
615,2076.05762722,1.023824879
616,2076.07805899,1.015474392
617,2076.09849096,1.004270905
618,2076.11892283,0.993099278
619,2076.1393546,0.99018769
620,2076.15978656,0.983254044
621,2076.18021843,0.972624884
622,2076.2006502,0.962467836
623,2076.22108217,0.949719821
624,2076.24151403,0.933499316
625,2076.2619459,0.901606937
626,2076.28237777,0.841915703
627,2076.30280963,0.765238579
628,2076.3232415,0.704481569
629,2076.34367336,0.676101885
630,2076.36410523,0.690781379
631,2076.38453709,0.750820426
632,2076.42540082,0.929291926
633,2076.44583269,0.961618792
634,2076.46626455,0.972200916
635,2076.48669641,0.975533961
636,2076.50712837,0.977051089
637,2076.52756014,0.976166716
638,2076.547992,0.984334193
639,2076.56842396,0.987690937
640,2076.58885572,0.992761364
641,2076.60928758,0.993532505
642,2076.62971955,0.986599862
643,2076.67058317,1.021642662
644,2076.69101513,1.022701469
645,2076.71144689,1.020401633
646,2076.73187874,1.016341369
647,2076.7523107,1.015109175
648,2076.77274246,1.016493099
649,2076.79317442,1.020576805
650,2076.81360628,1.025173851
651,2076.83403814,1.032006547
652,2076.85446999,1.038333531
653,2076.87490185,1.041177193
654,2076.91576566,1.022250419
655,2076.93619742,1.05421832
656,2076.95662928,1.054308561
657,2076.97706123,1.059220923
658,2076.99749299,1.056662207
659,2077.01792484,1.049713934
660,2077.0383567,1.039023993
661,2077.05878855,1.029068418
662,2077.0792204,1.029971482
663,2077.09965226,1.033924187
664,2077.12008411,1.039538483
665,2077.14051586,1.049956949
666,2077.16094782,1.055282705
667,2077.18137967,1.057256714
668,2077.20181162,1.057263809
669,2077.22224337,1.048836475
670,2077.24267522,1.060501242
671,2077.26310718,1.039664121
672,2077.28353893,1.05248873
673,2077.30397078,1.051358491
