,BJD - 2454833, Corrected Flux
0,2061.30529914,0.963704822
1,2061.32573127,0.965500475
2,2061.3461633,0.977878987
3,2061.36659524,0.977237034
4,2061.38702737,0.986262819
5,2061.4074594,0.989956588
6,2061.42789153,0.997907075
7,2061.48918762,1.00280531
8,2061.50961955,1.002527011
9,2061.53005158,1.01063571
10,2061.55048371,1.00763602
11,2061.57091574,1.014707085
12,2061.59134767,1.012955897
13,2061.61177979,1.014798783
14,2061.63221182,1.018191358
15,2061.65264375,1.015329296
16,2061.67307587,1.019405756
17,2061.6935079,1.017922874
18,2061.71393993,1.020901503
19,2061.73437195,1.018880078
20,2061.75480398,1.020656973
21,2061.775236,1.019496191
22,2061.79566802,1.019533276
23,2061.81610005,1.020921381
24,2061.83653207,1.019024766
25,2061.85696409,1.023835032
26,2061.87739602,1.022141432
27,2061.89782814,1.024291043
28,2061.91826016,1.027658562
29,2061.93869218,1.027870458
30,2061.9591242,1.030794852
31,2061.97955622,1.03046699
32,2061.99998834,1.034216285
33,2062.02042026,1.035888397
34,2062.04085228,1.036347477
35,2062.0612844,1.039184598
36,2062.08171632,1.040064302
37,2062.10214834,1.042499511
38,2062.12258046,1.042949772
39,2062.14301247,1.048180549
40,2062.16344439,1.047823125
41,2062.22474044,1.028509332
42,2062.26560457,1.030635958
43,2062.28603648,1.03460769
44,2062.3064686,1.032453354
45,2062.32690061,1.031665697
46,2062.34733273,1.032661928
47,2062.36776464,1.030658705
48,2062.38819665,1.034761281
49,2062.40862876,1.033023309
50,2062.42906068,1.036645059
51,2062.44949269,1.032106868
52,2062.4699247,1.035596156
53,2062.49035671,1.031125641
54,2062.51078872,1.032152559
55,2062.53122073,1.032334368
56,2062.55165274,1.026685101
57,2062.57208475,1.032802439
58,2062.59251676,1.02593683
59,2062.61294877,1.026269433
60,2062.63338078,1.02226291
61,2062.65381288,1.021747112
62,2062.67424479,1.018853412
63,2062.6946769,1.0189203
64,2062.7151089,1.019092118
65,2062.73554081,1.014107436
66,2062.75597292,1.01711669
67,2062.77640492,1.009814116
68,2062.79683683,1.013801306
69,2062.81726893,1.01013989
70,2062.83770094,1.011999378
71,2062.85813284,1.011791619
72,2062.87856494,1.007344633
73,2062.89899694,1.007221994
74,2062.91942885,1.002525672
75,2062.93986095,1.003903895
76,2062.96029295,0.999146171
77,2062.98072495,1.000620125
78,2063.00115696,0.997226195
79,2063.02158895,0.999009615
80,2063.04202096,0.999931597
81,2063.06245296,0.998096622
82,2063.08288495,1.003315068
83,2063.10331705,1.000865643
84,2063.12374905,1.004915361
85,2063.14418095,1.005977189
86,2063.16461305,1.008392048
87,2063.18504505,1.011270785
88,2063.20547695,1.012553953
89,2063.22590904,1.016811674
90,2063.24634094,1.017440054
91,2063.26677294,1.020692058
92,2063.28720503,1.022654679
93,2063.30763693,1.024844231
94,2063.32806892,1.025585791
95,2063.34850102,1.026829027
96,2063.36893291,1.031411664
97,2063.3893649,1.028763588
98,2063.409797,1.031826818
99,2063.45066088,1.032382731
100,2063.47109298,1.03558621
101,2063.49152497,1.031817075
102,2063.51195696,1.035261486
103,2063.53238895,1.032072786
104,2063.55282094,1.034491989
105,2063.57325293,1.033538798
106,2063.59368492,1.031452752
107,2063.69584497,1.013786724
108,2063.71627685,1.01195987
109,2063.73670884,1.016861448
110,2063.75714093,1.017618763
111,2063.77757281,1.0159378
112,2063.7980048,1.023132965
113,2063.81843689,1.018090181
114,2063.83886877,1.023524976
115,2063.85930076,1.022425495
116,2063.87973284,1.029376809
117,2063.90016473,1.02643602
118,2063.92059681,1.028209857
119,2063.94102879,1.030322866
120,2063.96146068,1.029449257
121,2063.98189276,1.035696153
122,2064.00232474,1.033066793
123,2064.02275663,1.042356358
124,2064.04318871,1.040604473
125,2064.06362069,1.044586113
126,2064.08405257,1.044457314
127,2064.10448465,1.042513214
128,2064.55398813,1.056709597
129,2064.5744202,1.059076696
130,2064.59485217,1.061414778
131,2064.61528404,1.059904009
132,2064.63571612,1.063760701
133,2064.65614809,1.063153605
134,2064.73787587,1.06817049
135,2064.75830793,1.06532938
136,2064.7787398,1.066580363
137,2064.79917187,1.066939625
138,2064.81960384,1.067419396
139,2064.8400358,1.066936743
140,2064.86046777,1.066400379
141,2064.92176367,1.073969895
142,2064.94219564,1.071848162
143,2064.9626276,1.077184077
144,2064.98305967,1.077286853
145,2065.00349153,1.078322451
146,2065.02392349,1.084408197
147,2065.04435556,1.080006056
148,2065.06478742,1.084208445
149,2065.08521938,1.080983068
150,2065.10565145,1.084948336
151,2065.12608331,1.080930265
152,2065.14651527,1.083007291
153,2065.16694733,1.082202955
154,2065.18737919,1.079378443
155,2065.20781125,1.081081911
156,2065.22824321,1.07602761
157,2065.24867507,1.080681047
158,2065.26910713,1.072739501
159,2065.28953909,1.076903505
160,2065.30997105,1.076002233
161,2065.33040301,1.074844254
162,2065.35083497,1.076855942
163,2065.37126692,1.073803602
164,2065.39169888,1.077475941
165,2065.41213084,1.074290714
166,2065.4325628,1.078263135
167,2065.45299475,1.074666526
168,2065.47342671,1.078243072
169,2065.49385856,1.077470353
170,2065.51429062,1.076778271
171,2065.53472257,1.080904023
172,2065.55515443,1.076324593
173,2065.57558648,1.080271207
174,2065.59601844,1.07612984
175,2065.6573143,1.075309331
176,2065.67774635,1.07881568
177,2065.6981782,1.078167448
178,2065.71861015,1.081378907
179,2065.7390422,1.082722646
180,2065.75947405,1.085980086
181,2065.779906,1.085220039
182,2065.80033805,1.090650721
183,2065.82077,1.092380292
184,2065.84120185,1.08908226
185,2065.8616339,1.089120833
186,2065.88206585,1.085384255
187,2065.9024977,1.084544371
188,2065.92292975,1.081318389
189,2065.94336169,1.080541464
190,2065.96379354,1.080955008
191,2065.98422559,1.078848197
192,2066.00465753,1.078625353
193,2066.02508938,1.077115025
194,2066.04552143,1.076505787
195,2066.06595337,1.075102043
196,2066.08638542,1.074121978
197,2066.14768115,1.067569818
198,2066.16811309,1.061120395
199,2066.18854504,1.06122039
200,2066.20897698,1.054531528
201,2066.22940892,1.051168389
202,2066.24984086,1.050380449
203,2066.27027281,1.041613234
204,2066.29070475,1.038984134
205,2066.31113669,1.032353912
206,2066.33156873,1.031780937
207,2066.39286455,1.030317396
208,2066.41329639,1.027064703
209,2066.43372833,1.026254823
210,2066.45416037,1.01929459
211,2066.47459221,1.022486295
212,2066.49502414,1.013291075
213,2066.51545618,1.016926118
214,2066.53588802,1.012351786
215,2066.55632006,1.010641025
216,2066.57675199,1.011780273
217,2066.59718383,1.008738852
218,2066.61761586,1.011917302
219,2066.6380478,1.008118942
220,2066.65847973,1.014369982
221,2066.67891167,1.009581232
222,2066.6993436,1.013746864
223,2066.71977554,1.010861894
224,2066.74020747,1.011812282
225,2066.7606394,1.016013927
226,2066.78107134,1.010923932
227,2066.80150337,1.016858966
228,2066.8219352,1.013350991
229,2066.86279907,1.029307329
230,2066.883231,1.033598061
231,2066.90366293,1.035134297
232,2066.92409496,1.034284841
233,2066.94452679,1.037546718
234,2066.96495862,1.036573168
235,2066.98539065,1.040920464
236,2067.00582258,1.038584415
237,2067.0262546,1.043942651
238,2067.04668643,1.043823045
239,2067.08755039,1.04821592
240,2067.10798222,1.045916825
241,2067.12841414,1.048716173
242,2067.14884617,1.047062567
243,2067.1692781,1.048387514
244,2067.18970992,1.047013027
245,2067.21014195,1.042845939
246,2067.23057387,1.040753777
247,2067.2510057,1.038108628
248,2067.27143772,1.03566614
249,2067.29186965,1.034195716
250,2067.31230147,1.041314855
251,2067.35316542,1.04317082
252,2067.37359724,1.042184081
253,2067.39402926,1.035192008
254,2067.41446119,1.035320482
255,2067.43489301,1.028594647
256,2067.45532503,1.024998417
257,2067.47575695,1.022899118
258,2067.49618897,1.015480424
259,2067.51662079,1.013224308
260,2067.53705271,1.004890608
261,2067.55748473,1.000910641
262,2067.57791655,0.992001922
263,2067.59834847,0.988692491
264,2067.61878039,0.98123097
265,2067.63921241,0.974161352
266,2067.65964422,0.968191943
267,2067.68007614,0.959509545
268,2067.70050806,0.957563472
269,2067.72093998,0.945222688
270,2067.74137199,0.953986196
271,2067.76180381,0.952875641
272,2067.78223573,0.954902044
273,2067.80266774,0.959957079
274,2067.86396349,0.936931998
275,2067.8843953,0.938637199
276,2067.90482731,0.932061099
277,2067.92525923,0.934429202
278,2067.94569104,0.929770362
279,2067.96612305,0.92941343
280,2067.98655496,0.929767551
281,2068.00698688,0.926194085
282,2068.02741879,0.931322519
283,2068.12957834,0.92966103
284,2068.15001035,0.93190629
285,2068.17044216,0.937017132
286,2068.19087407,0.937817873
287,2068.21130608,0.944387609
288,2068.23173789,0.942147825
289,2068.2521698,0.950893141
290,2068.2726018,0.951268001
291,2068.29303361,0.955265605
292,2068.31346552,0.958699268
293,2068.33389752,0.95719986
294,2068.35432933,0.961068616
295,2068.37476134,0.958139062
296,2068.39519314,0.961526833
297,2068.41562505,0.960712503
298,2068.43605705,0.961204428
299,2068.45648886,0.962740623
300,2068.47692076,0.963630758
301,2068.49735277,0.965856907
302,2068.51778457,0.966531603
303,2068.53821647,0.971592299
304,2068.55864848,0.97081601
305,2068.57908038,0.974155554
306,2068.59951218,0.977535573
307,2068.61994418,0.978630473
308,2068.64037608,0.984681659
309,2068.66080789,0.984481652
310,2068.68123989,0.989806794
311,2068.70167179,0.993816397
312,2068.72210359,0.994518328
313,2068.74253559,0.99813581
314,2068.76296749,0.999864349
315,2068.78339949,1.004206037
316,2068.84469518,1.0223858
317,2068.86512698,1.030396579
318,2068.88555888,1.036150298
319,2068.90599088,1.04224064
320,2068.92642267,1.050219268
321,2068.94685457,1.047522177
322,2068.96728656,1.056150654
323,2068.98771846,1.055664939
324,2069.00815026,1.059175222
325,2069.02858225,1.062885424
326,2069.04901415,1.063541699
327,2069.06944594,1.067522387
328,2069.08987794,1.067625749
329,2069.11030973,1.073782974
330,2069.13074162,1.072068447
331,2069.15117362,1.077210278
332,2069.17160551,1.076916698
333,2069.1920373,1.080747443
334,2069.21246929,1.081747041
335,2069.23290109,1.079516775
336,2069.25333308,1.081306546
337,2069.27376497,1.07459353
338,2069.31462875,1.081124232
339,2069.33506064,1.082556556
340,2069.35549243,1.081570318
341,2069.37592442,1.080584805
342,2069.39635631,1.079975814
343,2069.4167882,1.078877715
344,2069.43722009,1.082654103
345,2069.45765198,1.078223018
346,2069.47808386,1.080975153
347,2069.49851575,1.074792445
348,2069.51894764,1.073324746
349,2069.5802433,1.087789466
350,2069.60067519,1.081474602
351,2069.62110717,1.082337904
352,2069.64153896,1.077551841
353,2069.66197094,1.076859357
354,2069.68240283,1.075351037
355,2069.70283461,1.076026396
356,2069.72326659,1.075757057
357,2069.74369848,1.075007628
358,2069.76413026,1.07731868
359,2069.78456224,1.074441418
360,2069.80499413,1.075949736
361,2069.82542591,1.071372483
362,2069.84585789,1.067834141
363,2069.86628967,1.072745583
364,2069.88672165,1.077693796
365,2069.92758542,1.084693569
366,2069.9480172,1.077167264
367,2069.96844918,1.083830533
368,2069.98888106,1.090043085
369,2070.00931284,1.099736551
370,2070.09104045,1.074498323
371,2070.11147233,1.075405524
372,2070.13190431,1.080039651
373,2070.15233608,1.082496133
374,2070.17276796,1.075780876
375,2070.19319994,1.079793934
376,2070.21363171,1.076384811
377,2070.23406359,1.076713956
378,2070.25449557,1.074435791
379,2070.27492734,1.074993401
380,2070.29535922,1.076964423
381,2070.31579119,1.075368629
382,2070.33622296,1.079474642
383,2070.35665484,1.076510743
384,2070.37708681,1.082230281
385,2070.39751868,1.079143531
386,2070.41795046,1.083680706
387,2070.43838243,1.084024204
388,2070.4588143,1.082579229
389,2070.47924607,1.086569039
390,2070.54054189,1.096146065
391,2070.56097366,1.107111934
392,2070.58140543,1.105497249
393,2070.6018374,1.102847008
394,2070.62226927,1.100801566
395,2070.64270104,1.097495409
396,2070.66313301,1.098179126
397,2070.68356488,1.094395236
398,2070.70399665,1.09995217
399,2070.72442861,1.096192782
400,2070.74486048,1.099640362
401,2070.76529235,1.099507941
402,2070.78572422,1.100918997
403,2070.80615609,1.1051595
404,2070.82658795,1.102394969
405,2070.84701982,1.104017035
406,2070.88788355,1.103570949
407,2070.90831552,1.112449317
408,2070.92874728,1.123856794
409,2070.94917924,1.124718461
410,2070.96961111,1.128154715
411,2070.99004287,1.117666689
412,2071.0309067,1.106947793
413,2071.05133846,1.104228092
414,2071.07177043,1.10572742
415,2071.09220229,1.106389229
416,2071.11263405,1.10491875
417,2071.13306601,1.106525504
418,2071.15349788,1.105773428
419,2071.17392964,1.104523168
420,2071.1943616,1.103146032
421,2071.21479346,1.104385485
422,2071.23522532,1.102875356
423,2071.31695276,1.11695171
424,2071.33738461,1.115478744
425,2071.35781647,1.11587451
426,2071.37824833,1.113799847
427,2071.39868019,1.10680288
428,2071.41911215,1.106702537
429,2071.4395439,1.100893248
430,2071.45997576,1.099772464
431,2071.48040772,1.099384547
432,2071.50083947,1.099113964
433,2071.52127133,1.097785284
434,2071.54170329,1.096159835
435,2071.56213504,1.097244475
436,2071.5825669,1.094362531
437,2071.60299885,1.096622331
438,2071.62343061,1.093436543
439,2071.64386246,1.095880164
440,2071.66429441,1.093350307
441,2071.68472617,1.093774459
442,2071.70515802,1.094655648
443,2071.72558997,1.089804646
444,2071.74602182,1.092559782
445,2071.76645368,1.0874592
446,2071.78688553,1.090501712
447,2071.80731738,1.086348248
448,2071.82774923,1.086461098
449,2071.84818108,1.100679269
450,2071.86861293,1.099857732
451,2071.88904488,1.100989984
452,2071.90947663,1.093764218
453,2071.92990848,1.094829389
454,2071.95034043,1.073158233
455,2071.97077218,1.07403087
456,2072.05249958,1.083244909
457,2072.07293142,1.087153908
458,2072.09336327,1.081296069
459,2072.11379512,1.082962468
460,2072.13422696,1.079312409
461,2072.15465881,1.079682176
462,2072.17509066,1.0759432
463,2072.1955225,1.074431392
464,2072.21595435,1.076072309
465,2072.23638629,1.072170385
466,2072.25681814,1.074896861
467,2072.27724988,1.06971474
468,2072.29768183,1.069864923
469,2072.31811367,1.066885381
470,2072.33854542,1.06471175
471,2072.35897736,1.065669445
472,2072.3794092,1.062413739
473,2072.39984094,1.062705613
474,2072.42027289,1.060292466
475,2072.44070473,1.058141846
476,2072.46113647,1.050672399
477,2072.50200025,1.055749079
478,2072.52243199,1.055499211
479,2072.54286393,1.056906775
480,2072.56329578,1.052977975
481,2072.58372762,1.055605462
482,2072.60415946,1.056431199
483,2072.62459129,1.054033311
484,2072.64502323,1.055884867
485,2072.66545497,1.051869677
486,2072.74718232,1.034590425
487,2072.76761426,1.043010587
488,2072.7880461,1.046221812
489,2072.80847784,1.044747391
490,2072.82890977,1.047710845
491,2072.84934151,1.044386013
492,2072.86977334,1.047523793
493,2072.89020528,1.045121556
494,2072.91063701,1.048772106
495,2072.93106885,1.051682922
496,2072.95150079,1.049749743
497,2072.97193252,1.055026948
498,2072.99236435,1.052452974
499,2073.01279629,1.056843464
500,2073.03322802,1.054453265
501,2073.05365995,1.054523083
502,2073.07409179,1.052489756
503,2073.09452362,1.052102432
504,2073.11495545,1.053577758
505,2073.13538728,1.050709766
506,2073.15581912,1.057463947
507,2073.17625095,1.051074181
508,2073.19668278,1.057033032
509,2073.25797827,1.056598063
510,2073.2784101,1.053787793
511,2073.29884203,1.059205591
512,2073.31927376,1.056111201
513,2073.33970559,1.061556115
514,2073.36013752,1.059395457
515,2073.38056924,1.062571199
516,2073.40100107,1.061810757
517,2073.4214329,1.064640357
518,2073.44186473,1.067198123
519,2073.46229666,1.063776457
520,2073.48272838,1.066816684
521,2073.50316021,1.062837635
522,2073.52359213,1.069133522
523,2073.54402386,1.067136834
524,2073.56445569,1.068846656
525,2073.58488761,1.070236507
526,2073.62575116,1.060098948
527,2073.64618309,1.054556253
528,2073.66661491,1.060500636
529,2073.68704664,1.057462514
530,2073.74834211,1.076191272
531,2073.76877403,1.0787622
532,2073.78920585,1.076665563
533,2073.80963757,1.079033449
534,2073.83006949,1.078382098
535,2073.85050132,1.079883357
536,2073.87093324,1.081187762
537,2073.89136496,1.079202179
538,2073.91179678,1.079172107
539,2073.9322287,1.080798724
540,2073.99352416,1.078562979
541,2074.01395588,1.077851465
542,2074.0343877,1.075736628
543,2074.05481962,1.075529405
544,2074.07525144,1.071808244
545,2074.09568316,1.072400779
546,2074.11611507,1.066764829
547,2074.13654679,1.065577129
548,2074.15697861,1.063768156
549,2074.17741053,1.057940017
550,2074.23870597,1.046632295
551,2074.25913769,1.040266756
552,2074.27956951,1.037191324
553,2074.30000142,1.032284459
554,2074.32043314,1.029472702
555,2074.34086505,1.026331315
556,2074.36129687,1.021526347
557,2074.38172858,1.024259012
558,2074.40216049,1.015311017
559,2074.42259231,1.017144447
560,2074.44302412,1.013898325
561,2074.46345593,1.013513769
562,2074.48388775,1.010847292
563,2074.50431956,1.005252408
564,2074.52475137,1.006675112
565,2074.54518318,1.000409546
566,2074.565615,1.000156701
567,2074.58604691,0.998414573
568,2074.60647862,1.002436351
569,2074.62691043,0.998519068
570,2074.64734234,1.000984581
571,2074.66777405,1.002080532
572,2074.70863777,1.003632059
573,2074.72906948,1.000088919
574,2074.74950139,1.007917821
575,2074.7699332,1.006886179
576,2074.7903649,1.011212378
577,2074.81079681,1.013599277
578,2074.83122862,1.015212493
579,2074.85166033,1.017447212
580,2074.87209224,1.017642511
581,2074.89252394,1.022419522
582,2074.95381936,1.023201686
583,2074.97425117,1.0314118
584,2074.99468308,1.034160538
585,2075.01511488,1.034314144
586,2075.03554659,1.041085644
587,2075.05597849,1.040968023
588,2075.0764103,1.045998639
589,2075.096842,1.049086951
590,2075.1172739,1.052105985
591,2075.13770571,1.05300029
592,2075.15813761,1.052765535
593,2075.17856932,1.054809776
594,2075.19900112,1.05354661
595,2075.21943302,1.054708157
596,2075.23986472,1.055791915
597,2075.26029652,1.057148515
598,2075.28072843,1.0592868
599,2075.30116013,1.059390209
600,2075.32159193,1.061025571
601,2075.34202383,1.049442447
602,2075.36245553,1.050846179
603,2075.38288733,1.056024088
604,2075.40331923,1.063106227
605,2075.46461463,1.074432747
606,2075.48504643,1.073925923
607,2075.50547813,1.076871242
608,2075.52591003,1.07592634
609,2075.54634183,1.079254056
610,2075.56677363,1.080932786
611,2075.58720542,1.080240667
612,2075.60763722,1.084656206
613,2075.7097962,1.124372672
614,2075.7302279,1.080704084
615,2075.75065979,1.082362805
616,2075.77109159,1.091344782
617,2075.79152329,1.098358173
618,2075.81195518,1.094190354
619,2075.83238697,1.095656108
620,2075.87325056,1.092434453
621,2075.89368236,1.091578553
622,2075.95497773,1.070062564
623,2075.97540963,1.08588559
624,2075.99584142,1.089399176
625,2076.01627311,1.09272395
626,2076.036705,1.091022743
627,2076.0571368,1.088840871
628,2076.07756849,1.087301945
629,2076.09800038,1.081979347
630,2076.11843217,1.082881243
631,2076.13886386,1.077672918
632,2076.15929575,1.078438732
633,2076.17972754,1.074555669
634,2076.20015923,1.076717978
635,2076.22059112,1.074405161
636,2076.24102291,1.072313925
637,2076.2614547,1.072972862
638,2076.28188648,1.066972268
639,2076.30231827,1.071468311
640,2076.32275006,1.070284656
641,2076.34318185,1.069627845
642,2076.36361364,1.066503086
643,2076.424909,1.065725619
644,2076.44534078,1.066730705
645,2076.46577257,1.064835697
646,2076.48620436,1.066704408
647,2076.50663624,1.066394301
648,2076.52706793,1.066651146
649,2076.54749971,1.06793397
650,2076.5679316,1.065173949
651,2076.58836328,1.071254739
652,2076.60879506,1.070564391
653,2076.62922695,1.072339353
654,2076.67009042,1.072579128
655,2076.6905223,1.076334469
656,2076.71095398,1.075773486
657,2076.73138577,1.078020448
658,2076.75181765,1.077186812
659,2076.77224933,1.080076701
660,2076.79268121,1.080626924
661,2076.83354478,1.085113855
662,2076.915272,1.090345549
663,2076.93570368,1.096032417
664,2076.95613546,1.098238818
665,2076.97656734,1.101423997
666,2076.99699902,1.096193201
667,2077.0174308,1.098171402
668,2077.03786257,1.094058018
669,2077.05829435,1.097333312
670,2077.07872613,1.095380296
671,2077.09915791,1.098097423
672,2077.11958969,1.095896339
673,2077.14002136,1.096207438
