,BJD - 2454833, Corrected Flux
0,2061.305437285,0.722783318
1,2061.325869452,0.716395131
2,2061.346301519,0.7075739609999999
3,2061.3667334839997,0.7015254459999999
4,2061.38716565,0.6941749140000001
5,2061.407597715,0.6870918690000001
6,2061.42802988,0.681108808
7,2061.489326071,0.807559505
8,2061.509758034,0.8100270390000001
9,2061.5301900970003,0.809693152
10,2061.5506222589997,0.8128898240000001
11,2061.5710543210002,0.8193245579999999
12,2061.591486282,0.8308657420000001
13,2061.611918443,0.8466315959999999
14,2061.632350504,0.867130191
15,2061.6527824639998,0.890163477
16,2061.6732146229997,0.9089891959999999
17,2061.714078741,0.9323092070000001
18,2061.7345108,0.941872265
19,2061.754942858,0.9517883420000001
20,2061.775374916,0.960927387
21,2061.795806973,0.9680247059999999
22,2061.81623903,0.973369128
23,2061.836671086,0.9755011170000001
24,2061.857103142,0.97661755
25,2061.877535098,0.979386476
26,2061.897967254,0.980731603
27,2061.918399308,0.982586835
28,2061.9592634170003,0.9846625090000001
29,2061.97969547,0.987454431
30,2062.000127624,0.990991788
31,2062.020559576,0.988673595
32,2062.040991628,0.9870845840000001
33,2062.061423781,0.9859769070000001
34,2062.0818557320003,0.986851888
35,2062.102287783,0.988135305
36,2062.122719934,0.992512335
37,2062.143151984,0.991474596
38,2062.163583934,0.9910503279999999
39,2062.2248800820003,1.023749209
40,2062.24531223,1.0232050529999999
41,2062.265744278,1.0233835740000001
42,2062.286176225,1.0241194820000001
43,2062.306608373,1.023858811
44,2062.327040419,1.021580423
45,2062.347472565,1.016928662
46,2062.3679045110002,1.0165191340000002
47,2062.388336557,1.01751992
48,2062.408768702,1.01662649
49,2062.429200646,1.01572677
50,2062.4496326910003,1.017678733
51,2062.470064735,1.020330042
52,2062.490496778,1.0151232890000002
53,2062.510928821,1.015357238
54,2062.531360864,1.016214158
55,2062.551792906,1.0199673009999999
56,2062.572224948,1.019563802
57,2062.59265699,1.027088137
58,2062.61308903,1.036383233
59,2062.633521071,1.0416141209999998
60,2062.653953211,1.053803847
61,2062.674385152,1.056869168
62,2062.694817291,1.057500211
63,2062.71524933,1.058648323
64,2062.735681268,1.054697907
65,2062.756113407,1.04808623
66,2062.776545445,1.0398377859999999
67,2062.796977382,1.0312056790000002
68,2062.8174095189997,1.026066323
69,2062.837841556,1.021633755
70,2062.858273492,1.018425329
71,2062.878705628,1.015437538
72,2062.8991376629997,1.018090548
73,2062.9195695979997,1.020017297
74,2062.940001733,1.020279401
75,2062.9604337670003,1.023089583
76,2062.980865801,1.020147201
77,2063.001297834,1.018378866
78,2063.021729867,1.017499467
79,2063.0421619,1.018771611
80,2063.0625939320003,1.0204257190000001
81,2063.0830259639997,1.02347071
82,2063.103458095,1.0280841509999998
83,2063.1238901270003,1.032048597
84,2063.144322057,1.03623504
85,2063.1647541879997,1.0404442390000002
86,2063.185186217,1.042982034
87,2063.205618147,1.0454186840000002
88,2063.226050276,1.047096901
89,2063.246482204,1.048863623
90,2063.266914233,1.0536952290000001
91,2063.287346361,1.058020741
92,2063.328210315,1.069020901
93,2063.3486424420003,1.07438061
94,2063.369074368,1.076336169
95,2063.389506394,1.077560982
96,2063.4099385189998,1.080311141
97,2063.430370445,1.0813458329999999
98,2063.450802469,1.082092155
99,2063.4712345929997,1.0833288509999999
100,2063.491666617,1.0869942879999999
101,2063.512098641,1.088316248
102,2063.5325306639998,1.094191415
103,2063.552962687,1.095278109
104,2063.573394709,1.09549975
105,2063.5938267310003,1.0849442809999998
106,2063.614258753,1.063382784
107,2063.6346908739997,1.049445507
108,2063.695986935,1.102487451
109,2063.716418854,1.1064331459999999
110,2063.736850873,1.109561872
111,2063.757282992,1.110542076
112,2063.77771491,1.105674193
113,2063.798146929,1.0970384
114,2063.818579046,1.092057469
115,2063.839010963,1.084389429
116,2063.85944298,1.075842966
117,2063.879875096,1.064804211
118,2063.9003070129997,1.062438513
119,2063.9207391279997,1.05632704
120,2063.941171143,1.049367507
121,2063.961603058,1.038582317
122,2063.982035173,1.033927993
123,2064.002467187,1.032343443
124,2064.022899101,1.03058845
125,2064.043331214,1.0298134559999998
126,2064.063763227,1.033351868
127,2064.084195139,1.0374429
128,2064.1046272510002,1.039721762
129,2064.125059263,1.040998094
130,2064.554131419,1.019344391
131,2064.574563522,1.021878027
132,2064.594995525,1.0240344590000001
133,2064.6154274279997,1.02616493
134,2064.635859529,1.027820038
135,2064.656291531,1.0295772220000001
136,2064.738019434,1.038530734
137,2064.758451534,1.040121005
138,2064.778883433,1.0445933920000001
139,2064.799315532,1.0432025329999999
140,2064.81974753,1.047759079
141,2064.840179529,1.050566589
142,2064.860611526,1.055597329
143,2064.921907518,1.029236314
144,2064.9423395139997,1.029984159
145,2064.96277151,1.031279066
146,2064.983203605,1.0329730590000001
147,2065.0036355,1.034296803
148,2065.024067495,1.03776069
149,2065.0444995889998,1.041043089
150,2065.064931483,1.04647246
151,2065.085363477,1.048572562
152,2065.10579557,1.0531252340000001
153,2065.126227463,1.0575673509999999
154,2065.146659455,1.060567141
155,2065.167091547,1.064175713
156,2065.187523439,1.06614948
157,2065.20795553,1.065869369
158,2065.228387521,1.065515748
159,2065.248819411,1.065949289
160,2065.269251501,1.064438891
161,2065.2896834910002,1.063033651
162,2065.31011548,1.060347813
163,2065.33054747,1.057220722
164,2065.350979458,1.052584059
165,2065.371411446,1.047667138
166,2065.391843434,1.045255502
167,2065.412275422,1.045581053
168,2065.432707409,1.043469896
169,2065.453139396,1.04586628
170,2065.473571382,1.04772558
171,2065.4940032679997,1.049144859
172,2065.514435353,1.0499702690000001
173,2065.534867339,1.048828213
174,2065.555299223,1.050169436
175,2065.575731308,1.052840979
176,2065.5961632920003,1.054564689
177,2065.677891324,1.02860937
178,2065.698323206,1.018893256
179,2065.7187551879997,1.013625042
180,2065.73918727,1.014771754
181,2065.759619151,1.015756093
182,2065.780051131,1.012884148
183,2065.800483212,1.00973361
184,2065.820915192,1.013805907
185,2065.86177915,1.022719125
186,2065.882211129,1.020612934
187,2065.9026430070003,1.015879646
188,2065.923075086,1.012492762
189,2065.9435070629997,1.0049745970000001
190,2065.96393894,0.9958656509999999
191,2065.9843710170003,0.984361347
192,2066.004802994,0.973094295
193,2066.02523487,0.965949363
194,2066.045666946,0.954350897
195,2066.066098921,0.9386116290000001
196,2066.086530996,0.920139664
197,2066.147826819,0.867479269
198,2066.168258793,0.858898002
199,2066.188690765,0.85491884
200,2066.2091227379997,0.851905479
201,2066.229554711,0.84543039
202,2066.249986683,0.8416294670000001
203,2066.270418655,0.8392951809999999
204,2066.290850626,0.836485577
205,2066.311282597,0.82574379
206,2066.3317146679997,0.801763248
207,2066.393010577,0.709152735
208,2066.413442446,0.688813021
209,2066.433874415,0.667451859
210,2066.454306483,0.646287878
211,2066.4747383510003,0.631969893
212,2066.495170318,0.6286759
213,2066.515602386,0.621344606
214,2066.536034253,0.613531892
215,2066.556466319,0.609602642
216,2066.576898285,0.609223663
217,2066.5973301510003,0.609449821
218,2066.617762216,0.6081747989999999
219,2066.638194181,0.61208814
220,2066.658626146,0.615214871
221,2066.67905811,0.631125678
222,2066.699490074,0.658958762
223,2066.7199220370003,0.689085017
224,2066.740354,0.714185341
225,2066.7607859629998,0.738432312
226,2066.781217925,0.760486786
227,2066.801649988,0.777479424
228,2066.822081849,0.783850787
229,2066.862945771,0.783144064
230,2066.883377732,0.7935578190000001
231,2066.9038096920003,0.8088097190000001
232,2066.924241752,0.824069493
233,2066.944673611,0.83359458
234,2066.9651054710002,0.84181072
235,2066.98553753,0.8477774990000001
236,2067.0059694879997,0.8561644959999999
237,2067.026401546,0.863938395
238,2067.0468334029997,0.872438189
239,2067.06726536,0.888238359
240,2067.087697418,0.904435028
241,2067.108129274,0.923340884
242,2067.12856123,0.9390769090000001
243,2067.148993286,0.952029386
244,2067.169425242,0.9648962
245,2067.189857096,0.978934889
246,2067.210289151,0.9931129390000001
247,2067.230721105,0.9998683709999999
248,2067.251152959,0.9888472970000001
249,2067.271585013,0.9787518470000001
250,2067.292016966,0.964640562
251,2067.312448819,0.956408895
252,2067.353312824,0.9855414370000001
253,2067.373744676,0.983180743
254,2067.3941767270003,0.976468076
255,2067.4146086779997,0.9600609720000001
256,2067.435040529,0.944017476
257,2067.455472579,0.930158321
258,2067.4759045289998,0.919555215
259,2067.496336579,0.9117466129999999
260,2067.516768428,0.908713841
261,2067.5372003770003,0.914987386
262,2067.557632425,0.922403271
263,2067.578064274,0.9334987779999999
264,2067.598496221,0.9492810420000001
265,2067.618928169,0.9705265820000001
266,2067.639360216,0.9987220090000001
267,2067.6597920629997,1.027642187
268,2067.680224009,1.047821589
269,2067.700655955,1.035524565
270,2067.721087901,1.017587218
271,2067.741519946,1.007964108
272,2067.7619517910002,1.001096695
273,2067.782383735,1.0177380520000001
274,2067.86411161,1.043113739
275,2067.884543453,1.039932496
276,2067.904975495,1.036245318
277,2067.925407437,1.033746282
278,2067.9458392789998,1.031278149
279,2067.96627132,1.0279713659999998
280,2067.986703261,1.019626671
281,2068.007135202,1.002755124
282,2068.027567142,0.9873285340000001
283,2068.047999082,0.972413335
284,2068.129726838,0.879103365
285,2068.170590714,0.7826551979999999
286,2068.191022651,0.73531528
287,2068.211454688,0.6981272559999999
288,2068.231886525,0.6758999659999999
289,2068.252318461,0.67137279
290,2068.2727504970003,0.686176146
291,2068.293182333,0.7159306529999999
292,2068.313614268,0.749380585
293,2068.334046303,0.7855450709999999
294,2068.354478138,0.8193097509999999
295,2068.374910171,0.851942772
296,2068.395342005,0.8803250429999999
297,2068.415773939,0.90268684
298,2068.436205972,0.922891913
299,2068.456637805,0.940650489
300,2068.477069737,0.95567018
301,2068.497501769,0.969555245
302,2068.517933601,0.9860545759999999
303,2068.5383655329997,1.005590206
304,2068.558797563,1.026911449
305,2068.5792294939997,1.047437126
306,2068.599661324,1.062343025
307,2068.620093354,1.069775039
308,2068.640525284,1.072301081
309,2068.6609571129998,1.075955024
310,2068.681389142,1.077694285
311,2068.70182107,1.082512331
312,2068.722252899,1.089269689
313,2068.742684926,1.087562588
314,2068.763116854,1.0758222290000001
315,2068.783548881,1.059759886
316,2068.84484466,1.0570087959999999
317,2068.865276486,1.056037705
318,2068.885708411,1.0526620979999999
319,2068.906140436,1.050964705
320,2068.9265722610003,1.052602539
321,2068.947004185,1.055660442
322,2068.96743621,1.056429929
323,2068.9878681329997,1.052432139
324,2069.008299956,1.049366313
325,2069.028731979,1.047647563
326,2069.049163902,1.043853157
327,2069.069595724,1.040784599
328,2069.090027746,1.037762826
329,2069.110459567,1.040553908
330,2069.130891489,1.043997109
331,2069.15132351,1.047708855
332,2069.17175543,1.04829003
333,2069.19218725,1.053856306
334,2069.21261927,1.061544702
335,2069.233051089,1.066703716
336,2069.2534831079997,1.052536554
337,2069.273915027,1.0294371629999999
338,2069.314778864,1.039661595
339,2069.335210781,1.0367895790000001
340,2069.355642598,1.034707436
341,2069.376074615,1.03645921
342,2069.3965065320003,1.039041918
343,2069.416938449,1.040201773
344,2069.437370364,1.040265015
345,2069.45780228,1.040438158
346,2069.478234195,1.04158448
347,2069.49866611,1.022633272
348,2069.519098025,0.991218578
349,2069.5803937660003,0.99350954
350,2069.60082568,1.001249242
351,2069.6212576929997,1.005592152
352,2069.641689505,1.004733872
353,2069.6621215170003,1.00512009
354,2069.682553429,1.007560033
355,2069.702985241,1.010955354
356,2069.723417252,1.015390561
357,2069.743849163,1.019162482
358,2069.764280973,1.021271529
359,2069.7847129829997,1.0270123740000001
360,2069.805144893,1.033669008
361,2069.825576702,1.037098551
362,2069.846008711,1.014473404
363,2069.86644052,0.986781503
364,2069.886872528,0.97301806
365,2069.907304437,1.011633381
366,2069.927736344,1.033838668
367,2069.948168152,1.034970937
368,2069.968600159,1.033033544
369,2069.989032065,1.032452695
370,2070.009463872,1.031723971
371,2070.091191594,1.03084403
372,2070.111623498,1.031602568
373,2070.1320555029997,1.03433799
374,2070.1524873070002,1.039963808
375,2070.17291921,1.048937099
376,2070.193351213,1.0547844709999998
377,2070.213783017,1.055839808
378,2070.234214919,1.0571602709999999
379,2070.254646921,1.0556130479999999
380,2070.2750787229998,1.0547406259999998
381,2070.295510625,1.055414116
382,2070.315942626,1.054441308
383,2070.336374427,1.056806599
384,2070.356806328,1.060389581
385,2070.3976702279997,1.066643759
386,2070.4181020270003,1.0697090459999998
387,2070.438534027,1.070687701
388,2070.458965925,1.058364217
389,2070.479397724,1.031894255
390,2070.499829722,1.005279932
391,2070.5406936179998,1.007271144
392,2070.561125415,0.997990435
393,2070.581557212,0.9980785529999999
394,2070.601989208,0.9999804940000001
395,2070.622421105,0.992341922
396,2070.6632848960003,0.978250535
397,2070.704148586,0.9650854870000001
398,2070.745012475,0.9581195579999999
399,2070.765444369,0.954252995
400,2070.7858762620003,0.950888647
401,2070.806308155,0.950664794
402,2070.826740048,0.954237443
403,2070.847171941,0.9644696
404,2070.867603833,0.9529729990000001
405,2070.888035725,0.9296055529999999
406,2070.908467716,0.914973927
407,2070.928899507,0.90208964
408,2070.949331498,0.9287397820000001
409,2070.969763389,0.9559456040000001
410,2071.0310590579998,0.927399781
411,2071.0719228370003,0.9292298940000001
412,2071.092354725,0.937224073
413,2071.1127865129997,0.943089495
414,2071.133218501,0.946817363
415,2071.1536503889997,0.9532615240000001
416,2071.194514163,0.960372179
417,2071.235377936,0.9430472759999999
418,2071.296673592,0.956775545
419,2071.3579692460003,0.943097107
420,2071.37840113,0.9512450579999999
421,2071.398833013,0.951733383
422,2071.419264997,0.9419424909999999
423,2071.439696779,0.937074035
424,2071.460128662,0.931778711
425,2071.480560645,0.927404387
426,2071.5009924260003,0.924515964
427,2071.521424308,0.920658648
428,2071.541856289,0.917621783
429,2071.56228807,0.919119755
430,2071.582719951,0.921484462
431,2071.603151931,0.925891127
432,2071.6235837110003,0.9231326870000001
433,2071.644015591,0.916595732
434,2071.66444757,0.906614007
435,2071.684879349,0.89433592
436,2071.705311228,0.884671135
437,2071.725743206,0.876401743
438,2071.746175084,0.867385885
439,2071.766606962,0.8621312109999999
440,2071.787038839,0.860429214
441,2071.807470716,0.858447271
442,2071.827902593,0.8467569009999999
443,2071.848334469,0.8672585359999999
444,2071.868766345,0.86972478
445,2071.889198321,0.871759965
446,2071.909630097,0.875621737
447,2071.930061972,0.874017225
448,2071.9504939470003,0.870694938
449,2071.970925721,0.8671389559999999
450,2072.052653216,0.8949421479999999
451,2072.073085088,0.888984288
452,2072.093516961,0.90931168
453,2072.113948833,0.94744042
454,2072.134380705,0.919303712
455,2072.154812576,0.912893321
456,2072.175244448,0.9251901790000001
457,2072.195676319,0.9437832
458,2072.216108189,0.9583732759999999
459,2072.236540159,0.9739958059999999
460,2072.256972029,0.9936782009999999
461,2072.277403799,0.991019883
462,2072.297835768,0.986586656
463,2072.318267637,1.002759537
464,2072.338699406,1.007559079
465,2072.359131374,1.0046418129999999
466,2072.379563242,0.9915788
467,2072.4204269770003,0.9590483190000001
468,2072.440858844,0.933222372
469,2072.502154444,0.866214667
470,2072.522586209,0.8484658359999999
471,2072.543018175,0.8324993959999999
472,2072.583881905,0.8686381129999999
473,2072.604313769,1.002373914
474,2072.6247456329997,1.089568505
475,2072.665609361,1.073674353
476,2072.686041224,1.067714773
477,2072.706473187,1.072555685
478,2072.747336812,1.046283209
479,2072.767768774,1.084472086
480,2072.788200636,1.119967344
481,2072.808632397,1.12472708
482,2072.829064358,1.12061845
483,2072.849496118,1.119476159
484,2072.869927979,1.118471209
485,2072.910791699,1.108395145
486,2072.931223558,1.108044821
487,2072.9516555170003,1.11178994
488,2072.972087276,1.109990732
489,2072.992519134,1.112022715
490,2073.012951093,1.123901005
491,2073.033382851,1.123049803
492,2073.053814808,1.106271281
493,2073.0946785220003,1.127989601
494,2073.115110379,1.134509238
495,2073.135542235,1.133219423
496,2073.176405947,1.123306176
497,2073.196837802,1.126252676
498,2073.278565221,1.1142530259999999
499,2073.298997174,1.109255581
500,2073.319428928,1.105046664
501,2073.339860781,1.0988013
502,2073.360292734,1.100560026
503,2073.380724486,1.1029692770000001
504,2073.401156339,1.101205815
505,2073.421588191,1.1068034409999998
506,2073.442020042,1.118223226
507,2073.462451994,1.099002911
508,2073.482883744,1.1147172890000001
509,2073.503315595,1.125733
510,2073.523747546,1.120352199
511,2073.544179296,1.114529407
512,2073.564611145,1.118671167
513,2073.585043095,1.119909687
514,2073.605474944,1.116609747
515,2073.6259066929997,1.1122478120000001
516,2073.646338641,1.10773701
517,2073.66677049,1.105060948
518,2073.6872022370003,1.101170978
519,2073.748497779,1.103488019
520,2073.768929726,1.096231897
521,2073.789361572,1.086243098
522,2073.8097933179997,1.087461335
523,2073.830225264,1.086272729
524,2073.8506571089997,1.086269798
525,2073.8915208,1.078862345
526,2073.911952644,1.093249036
527,2073.932384588,1.1021549529999999
528,2073.993680119,1.073907656
529,2074.014111862,1.079007812
530,2074.034543705,1.085441355
531,2074.054975647,1.0803369409999999
532,2074.075407489,1.067877151
533,2074.095839231,1.071495514
534,2074.1162711720003,1.0814133240000001
535,2074.136702914,1.088327421
536,2074.157134754,1.088687194
537,2074.177566695,1.0851060270000001
538,2074.238862215,1.081671618
539,2074.259293954,1.078683893
540,2074.2797257929997,1.074974552
541,2074.300157732,1.072880697
542,2074.32058947,1.068251407
543,2074.341021409,1.065914729
544,2074.361453246,1.06128633
545,2074.381884984,1.06258867
546,2074.402316921,1.0654330490000001
547,2074.4227487579997,1.068862199
548,2074.443180595,1.067122806
549,2074.463612431,1.074097885
550,2074.484044267,1.0827633540000001
551,2074.504476103,1.07506911
552,2074.524907938,1.06432106
553,2074.545339773,1.0744999290000001
554,2074.565771608,1.092663815
555,2074.586203543,1.0947511490000001
556,2074.606635277,1.096864879
557,2074.627067111,1.090917264
558,2074.647499044,1.088776207
559,2074.667930778,1.093919325
560,2074.708794543,1.0878030090000002
561,2074.729226276,1.0815764829999999
562,2074.749658208,1.0734637790000001
563,2074.77009004,1.07803251
564,2074.790521771,1.077136333
565,2074.810953703,1.077354487
566,2074.831385533,1.087195748
567,2074.851817264,1.088421257
568,2074.872249194,1.078542729
569,2074.892680924,1.073601082
570,2074.913112754,1.093634073
571,2074.953976413,1.067815393
572,2074.974408242,1.094786198
573,2074.99484017,1.089496435
574,2075.035703726,1.085562
575,2075.0561356539997,1.078391864
576,2075.076567481,1.07575705
577,2075.096999209,1.078872835
578,2075.117431135,1.0786818870000001
579,2075.1378629620003,1.089702226
580,2075.158294888,1.089655731
581,2075.178726614,1.077123294
582,2075.199158439,1.084386824
583,2075.219590365,1.104205474
584,2075.24002209,1.1076506640000001
585,2075.260453915,1.101492959
586,2075.280885839,1.09985114
587,2075.301317563,1.106366791
588,2075.321749387,1.104622587
589,2075.34218131,1.102227508
590,2075.362613034,1.1000226659999999
591,2075.383044857,1.089023118
592,2075.403476779,1.0814841720000001
593,2075.464772245,1.11166023
594,2075.4852040670003,1.1068119509999998
595,2075.505635788,1.099620856
596,2075.526067709,1.1023768409999999
597,2075.54649953,1.102913894
598,2075.56693135,1.107022259
599,2075.58736317,1.1158726190000001
600,2075.60779499,1.0975265379999999
601,2075.628226809,1.1187404459999999
602,2075.648658628,1.128596164
603,2075.709954084,1.160054225
604,2075.730385802,1.079975537
605,2075.75081772,1.07538042
606,2075.771249537,1.105627852
