,BJD - 2454833, Corrected Flux
0,2061.3054591329997,1.0181214440000002
1,2061.325891313,1.0156585340000002
2,2061.3463233929997,1.015462975
3,2061.366755372,1.015905482
4,2061.387187551,1.0151931440000002
5,2061.407619629,1.016513229
6,2061.428051808,1.016159523
7,2061.489348039,1.016670601
8,2061.509780015,1.01857035
9,2061.530212092,1.019127469
10,2061.5506442670003,1.018891566
11,2061.571076342,1.019423175
12,2061.5915083170003,1.0184136670000001
13,2061.611940491,1.020604591
14,2061.632372565,1.02059461
15,2061.652804539,1.02055472
16,2061.6732367120003,1.021005077
17,2061.693668785,1.020605483
18,2061.714100857,1.021851786
19,2061.7345329279997,1.021896093
20,2061.754965,1.0240318259999999
21,2061.775397071,1.0228703259999998
22,2061.795829142,1.023097978
23,2061.816261211,1.0209608190000001
24,2061.836693281,1.020686811
25,2061.857125351,1.020910613
26,2061.87755732,1.019925569
27,2061.897989488,1.021381686
28,2061.918421556,1.020777392
29,2061.938853624,1.019911453
30,2061.959285691,1.019237708
31,2061.979717758,1.019288382
32,2062.0001499239997,1.021000772
33,2062.02058189,1.020888838
34,2062.041013956,1.023240557
35,2062.0614461210002,1.024495845
36,2062.081878086,1.024281354
37,2062.102310151,1.02423051
38,2062.122742314,1.024897532
39,2062.143174378,1.025206982
40,2062.163606341,1.025241139
41,2062.224902528,1.036744686
42,2062.24533469,1.036589816
43,2062.2657667510002,1.038526819
44,2062.286198711,1.0393428120000001
45,2062.306630872,1.0401773109999999
46,2062.327062931,1.040663863
47,2062.347495091,1.0420122
48,2062.36792705,1.045686746
49,2062.388359109,1.045818215
50,2062.408791267,1.045519351
51,2062.429223224,1.048942563
52,2062.449655282,1.049013037
53,2062.4700873389997,1.048583043
54,2062.490519395,1.046837345
55,2062.510951452,1.047340162
56,2062.531383507,1.048661436
57,2062.5518155620002,1.049411947
58,2062.572247617,1.052447952
59,2062.592679672,1.055936965
60,2062.613111726,1.057393888
61,2062.63354378,1.053928964
62,2062.653975933,1.050831466
63,2062.674407886,1.050576838
64,2062.694840039,1.05271722
65,2062.715272091,1.054690352
66,2062.735704042,1.054152588
67,2062.7561361939997,1.04940035
68,2062.776568244,1.047221567
69,2062.797000195,1.0460442090000002
70,2062.817432345,1.049699774
71,2062.837864395,1.0526542220000001
72,2062.858296344,1.056334979
73,2062.878728493,1.05874767
74,2062.899160541,1.058266581
75,2062.919592489,1.0545400040000001
76,2062.940024637,1.05502806
77,2062.960456684,1.054624303
78,2062.980888731,1.052577292
79,2063.0013207770003,1.053862618
80,2063.021752824,1.056095155
81,2063.042184869,1.054955555
82,2063.062616914,1.053335502
83,2063.083048959,1.054344708
84,2063.103481103,1.050997022
85,2063.123913147,1.050617905
86,2063.144345091,1.048489343
87,2063.1647772339998,1.04685273
88,2063.185209277,1.044246671
89,2063.205641219,1.041378913
90,2063.226073361,1.038162161
91,2063.246505303,1.0347274290000001
92,2063.266937344,1.031319331
93,2063.287369485,1.030995003
94,2063.307801425,1.028670444
95,2063.328233465,1.0290644409999998
96,2063.348665605,1.026881402
97,2063.369097544,1.025867874
98,2063.3895295820003,1.024272117
99,2063.409961721,1.024224815
100,2063.430393659,1.02259289
101,2063.4508256960003,1.02172849
102,2063.471257833,1.022941025
103,2063.49168987,1.021659227
104,2063.512121906,1.019248925
105,2063.532553942,1.0198286909999998
106,2063.552985978,1.021748664
107,2063.573418013,1.022469635
108,2063.5938500479997,1.019273151
109,2063.614282082,1.016788429
110,2063.6347142160002,1.0152965729999999
111,2063.696010315,1.019649384
112,2063.716442248,1.0184333079999999
113,2063.73687428,1.016862287
114,2063.757306411,1.016544794
115,2063.7777383420002,1.016451047
116,2063.7981703729997,1.0151682579999999
117,2063.818602503,1.016493211
118,2063.839034433,1.015431582
119,2063.859466463,1.013833028
120,2063.8798985920002,1.011944641
121,2063.900330521,1.013587056
122,2063.920762649,1.0154086820000001
123,2063.941194677,1.019510475
124,2063.961626604,1.022079333
125,2063.982058732,1.023240165
126,2064.002490758,1.027290192
127,2064.022922685,1.0318791379999999
128,2064.043354811,1.037506901
129,2064.063786837,1.038708642
130,2064.084218762,1.039767629
131,2064.104650886,1.0391439709999999
132,2064.125082911,1.037347391
133,2064.554155332,1.014127462
134,2064.5745874470003,1.013281475
135,2064.595019463,1.011799996
136,2064.615451377,1.009873493
137,2064.635883492,1.008502683
138,2064.6563155060003,1.004027679
139,2064.738043459,0.99817492
140,2064.758475571,0.995146118
141,2064.778907483,0.997344247
142,2064.799339594,0.9995433140000001
143,2064.819771605,1.001795895
144,2064.840203616,1.001625418
145,2064.860635626,0.998239118
146,2064.921931655,0.993021825
147,2064.942363664,0.995252345
148,2064.962795671,0.9953994140000001
149,2064.983227779,0.99481279
150,2065.003659687,0.998469342
151,2065.024091694,1.002626269
152,2065.044523801,1.006728593
153,2065.064955707,1.004827769
154,2065.085387713,1.00752068
155,2065.105819819,1.0105750690000002
156,2065.1262517239998,1.013271755
157,2065.146683729,1.014406063
158,2065.167115833,1.017442937
159,2065.187547737,1.018136972
160,2065.207979841,1.018402431
161,2065.2284118439998,1.0185414320000001
162,2065.248843747,1.0184456709999998
163,2065.2692758489998,1.019542393
164,2065.289707851,1.021847474
165,2065.310139853,1.0230598929999999
166,2065.330571855,1.025203018
167,2065.351003855,1.02565523
168,2065.371435856,1.024124129
169,2065.391867856,1.02682352
170,2065.412299856,1.028591722
171,2065.432731855,1.030798918
172,2065.4531638539997,1.032716949
173,2065.473595853,1.035649903
174,2065.494027751,1.03566083
175,2065.514459849,1.036051957
176,2065.534891847,1.036794662
177,2065.555323743,1.036992221
178,2065.57575584,1.037594062
179,2065.596187836,1.039485633
180,2065.657483823,1.0240261609999999
181,2065.677915918,1.025115512
182,2065.698347812,1.024359285
183,2065.718779806,1.02320972
184,2065.7392119,1.025679275
185,2065.7596437929997,1.0269193909999998
186,2065.780075786,1.029527377
187,2065.8005078779997,1.032153366
188,2065.82093987,1.0314607
189,2065.841371762,1.0310947240000001
190,2065.861803854,1.030156493
191,2065.8822358439998,1.028888565
192,2065.902667735,1.027859799
193,2065.923099825,1.0256700779999999
194,2065.943531815,1.0250118129999999
195,2065.963963704,1.025006404
196,2065.9843957939997,1.025321298
197,2066.025259671,1.02561038
198,2066.045691759,1.025323623
199,2066.066123746,1.0266170959999998
200,2066.0865558329997,1.025493524
201,2066.147851692,1.0188249409999999
202,2066.168283678,1.019657638
203,2066.188715663,1.019636826
204,2066.209147648,1.020063558
205,2066.229579632,1.019084838
206,2066.250011616,1.01716326
207,2066.2704436,1.017897133
208,2066.290875583,1.018769987
209,2066.3113075670003,1.023897598
210,2066.331739649,1.020089869
211,2066.393035594,1.0114354079999999
212,2066.4134674760003,1.010967706
213,2066.433899456,1.011387289
214,2066.454331537,1.009815044
215,2066.4747634170003,1.009874153
216,2066.495195396,1.0084007879999999
217,2066.515627476,1.0070360090000001
218,2066.536059354,1.005588268
219,2066.556491433,1.00496649
220,2066.5769234110003,1.004924452
221,2066.597355288,1.003272478
222,2066.617787366,1.002310975
223,2066.638219343,1.004457241
224,2066.658651319,1.004182935
225,2066.679083295,1.00607135
226,2066.699515271,1.005511401
227,2066.719947247,1.005636267
228,2066.7403792220002,1.005694063
229,2066.760811196,1.006025961
230,2066.781243171,1.006281161
231,2066.801675245,1.0060550990000001
232,2066.822107118,1.00785762
233,2066.862971064,1.000223111
234,2066.8834030370003,1.0038117009999998
235,2066.903835009,1.007526662
236,2066.92426708,1.007479732
237,2066.944698952,1.007754169
238,2066.965130823,1.009360876
239,2066.985562893,1.011254163
240,2067.005994863,1.014230517
241,2067.026426934,1.017403124
242,2067.046858803,1.020324026
243,2067.067290772,1.02019802
244,2067.08772284,1.021829525
245,2067.108154709,1.02123334
246,2067.128586677,1.018054959
247,2067.149018744,1.017788992
248,2067.169450712,1.018122851
249,2067.189882579,1.019474035
250,2067.210314645,1.019419019
251,2067.230746611,1.019666158
252,2067.251178477,1.017484859
253,2067.271610542,1.016955754
254,2067.292042507,1.016565443
255,2067.312474372,1.01286729
256,2067.3533384,1.011930524
257,2067.373770264,1.0128884459999998
258,2067.394202327,1.013124992
259,2067.41463429,1.0130408929999999
260,2067.435066152,1.011262169
261,2067.455498214,1.010971865
262,2067.475930176,1.01228028
263,2067.496362237,1.012465205
264,2067.516794098,1.013674382
265,2067.5372260589997,1.013990055
266,2067.557658119,1.012698342
267,2067.5780899789997,1.013951598
268,2067.598521938,1.01537563
269,2067.6189538979997,1.016391359
270,2067.639385956,1.017074953
271,2067.659817815,1.017397178
272,2067.680249772,1.019881807
273,2067.70068173,1.0200249540000002
274,2067.721113687,1.020023514
275,2067.7415457439997,1.021508308
276,2067.761977601,1.015072568
277,2067.782409557,1.0121042279999999
278,2067.802841613,1.0102699290000001
279,2067.864137478,1.011685673
280,2067.884569333,1.013163362
281,2067.905001386,1.012131059
282,2067.92543334,1.013064229
283,2067.945865193,1.0131784990000001
284,2067.966297246,1.013225643
285,2067.986729199,1.013364554
286,2068.007161151,1.015394876
287,2068.027593103,1.015872728
288,2068.048025054,1.013849293
289,2068.129752856,1.00767988
290,2068.150184906,1.005814709
291,2068.170616755,1.009459816
292,2068.191048704,1.012555627
293,2068.211480752,1.011156355
294,2068.231912601,1.0134933659999998
295,2068.2523445479997,1.017183624
296,2068.272776596,1.020092762
297,2068.293208443,1.019823184
298,2068.31364039,1.019979927
299,2068.334072436,1.019564886
300,2068.354504282,1.02676691
301,2068.374936328,1.016936888
302,2068.395368173,1.014820753
303,2068.415800118,1.011907472
304,2068.4362321629997,1.0091879209999999
305,2068.456664007,1.007925084
306,2068.47709595,1.007710875
307,2068.497527994,1.0078614479999999
308,2068.517959837,1.00663392
309,2068.53839178,1.008639246
310,2068.5588238220002,1.009617456
311,2068.5792557639998,1.0056624840000001
312,2068.599687606,1.005693073
313,2068.6201196479997,1.0032833429999999
314,2068.6405515879997,1.00389023
315,2068.6609834289998,1.0038453790000001
316,2068.681415469,1.004356673
317,2068.701847409,1.0028814590000001
318,2068.7222792489997,1.001573384
319,2068.742711288,1.0017656259999999
320,2068.763143227,1.000669718
321,2068.783575265,0.998329398
322,2068.844871078,0.9827291920000001
323,2068.865302915,0.984412084
324,2068.885734852,0.98460013
325,2068.906166888,0.986652835
326,2068.926598724,0.987511173
327,2068.94703066,0.985838241
328,2068.967462695,0.985232405
329,2068.98789463,0.984836225
330,2069.008326465,0.9843843040000001
331,2069.0287584979997,0.98315605
332,2069.049190432,0.982015468
333,2069.069622266,0.981989991
334,2069.090054299,0.983894893
335,2069.110486132,0.982937339
336,2069.130918064,0.9905068929999999
337,2069.151350096,0.985693272
338,2069.171782028,0.9845679479999999
339,2069.21264589,0.98527283
340,2069.233077721,0.983700378
341,2069.253509751,0.98451347
342,2069.273941681,0.98385486
343,2069.31480554,0.9762107240000001
344,2069.335237469,0.9777881209999999
345,2069.355669297,0.979132263
346,2069.376101326,0.980052371
347,2069.3965332529997,0.979415666
348,2069.4169651810003,0.98194417
349,2069.437397108,0.983522245
350,2069.457829035,0.9845026109999999
351,2069.478260961,0.9852565520000001
352,2069.4986928870003,0.9850918820000001
353,2069.519124813,0.9855143690000001
354,2069.580420588,0.982630485
355,2069.600852512,0.983404753
356,2069.621284536,0.979850434
357,2069.64171636,0.9797201179999999
358,2069.662148383,0.9808105840000001
359,2069.682580306,0.982302702
360,2069.703012128,0.982723743
361,2069.72344415,0.98451657
362,2069.743876072,0.986319742
363,2069.764307894,0.98442256
364,2069.784739915,0.9850820020000001
365,2069.805171836,0.9834933770000001
366,2069.825603656,0.985553815
367,2069.846035676,0.98279905
368,2069.866467496,0.981175199
369,2069.886899516,0.978839718
370,2069.907331435,0.97533359
371,2069.927763353,0.9766513840000001
372,2069.948195172,0.979296756
373,2069.96862719,0.9764327209999999
374,2069.9890591070002,0.97562974
375,2070.009490925,0.969921688
376,2070.09121869,0.9730327390000001
377,2070.1116506060002,0.976215732
378,2070.132082621,0.979629857
379,2070.1525144360003,0.97936611
380,2070.172946351,0.9811934940000001
381,2070.193378365,0.978523002
382,2070.213810179,0.9774812509999999
383,2070.234242092,0.97623061
384,2070.254674105,0.97770889
385,2070.275105918,0.976785997
386,2070.2955378310003,0.9795337959999999
387,2070.315969843,0.978385518
388,2070.336401655,0.979252627
389,2070.356833566,0.982143386
390,2070.3772655770003,0.981261278
391,2070.3976974879997,0.98317494
392,2070.4181292979997,0.9842041309999999
393,2070.438561308,0.9838052009999999
394,2070.4589932179997,0.984343225
395,2070.4794250279997,0.984694664
396,2070.4998570370003,0.982662672
397,2070.540720954,0.9766406609999999
398,2070.5611527620003,0.98123161
399,2070.58158457,0.981340793
400,2070.602016577,0.98346934
401,2070.622448484,0.984583213
402,2070.64288029,0.985176232
403,2070.663312297,0.9830316090000001
404,2070.704176008,0.9877697670000001
405,2070.724608014,0.99198569
406,2070.7450399189997,0.994857703
407,2070.765471823,0.997853667
408,2070.785903727,0.999981397
409,2070.806335631,1.001973423
410,2070.826767535,1.00424127
411,2070.8471994379997,1.0085279040000001
412,2070.867631341,1.008965582
413,2070.9084952460003,1.007987389
414,2070.928927048,1.007051077
415,2070.949359049,1.00688467
416,2070.96979095,1.007582749
417,2070.990222751,1.0141541490000001
418,2071.0310866520003,1.0179207270000001
419,2071.051518452,1.024958461
420,2071.0719504510002,1.03024503
421,2071.092382351,1.034878588
422,2071.112814149,1.0375395790000002
423,2071.1332461479997,1.032214229
424,2071.153678046,1.03248878
425,2071.1741098439998,1.03519669
426,2071.194541842,1.03499284
427,2071.214973739,1.045086879
428,2071.235405635,1.040791308
429,2071.296701324,1.0377223009999998
430,2071.317133219,1.042599015
431,2071.337565115,1.053395749
432,2071.378428904,1.0554293270000001
433,2071.398860798,1.0569153740000001
434,2071.4192927920003,1.05311662
435,2071.439724585,1.05361626
436,2071.460156478,1.058466871
437,2071.480588471,1.058548611
438,2071.501020264,1.061094213
439,2071.521452156,1.069587242
440,2071.5623159389997,1.082663585
441,2071.58274783,1.08878007
442,2071.603179821,1.0968109259999999
443,2071.623611611,1.106564007
444,2071.644043502,1.107205495
445,2071.664475491,1.108970125
446,2071.684907281,1.103513281
447,2071.70533917,1.09469502
448,2071.725771159,1.096233506
449,2071.746203047,1.098348335
450,2071.766634935,1.092626635
451,2071.787066823,1.087729744
452,2071.807498711,1.0796722029999999
453,2071.827930598,1.076735177
454,2071.848362485,1.088877383
455,2071.868794371,1.0889800459999999
456,2071.889226357,1.085748373
457,2071.909658143,1.08548395
458,2071.930090029,1.089968406
459,2071.950522014,1.087302457
460,2071.9709537989997,1.082471903
461,2072.0526813339998,1.0762318240000002
462,2072.073113218,1.076701192
463,2072.093545101,1.075491351
464,2072.1139769829997,1.0727630940000001
465,2072.134408865,1.070014932
466,2072.175272629,1.070456153
467,2072.19570451,1.06825763
468,2072.216136391,1.0648325459999999
469,2072.236568371,1.06978112
470,2072.257000252,1.070033055
471,2072.297864011,1.071866125
472,2072.31829589,1.073059377
473,2072.338727669,1.069548055
474,2072.359159648,1.066604553
475,2072.3795915260002,1.065306143
476,2072.400023304,1.0613682629999999
477,2072.420455282,1.06194777
478,2072.440887159,1.065959505
479,2072.502182789,1.051723835
480,2072.522614565,1.050671781
481,2072.543046541,1.047164062
482,2072.563478416,1.049141901
483,2072.583910291,1.047844006
484,2072.62477404,1.046805298
485,2072.645206014,1.045317563
486,2072.665637788,1.042898565
487,2072.686069661,1.044353418
488,2072.706501634,1.039090844
489,2072.747365279,1.025864192
490,2072.767797252,1.029242763
491,2072.788229123,1.0298907370000001
492,2072.808660895,1.031431315
493,2072.829092866,1.034248985
494,2072.8495246370003,1.037380682
495,2072.869956507,1.037382246
496,2072.890388477,1.036518511
497,2072.910820247,1.036841586
498,2072.931252117,1.040260665
499,2072.951684086,1.035050579
500,2072.972115855,1.034327728
501,2072.992547723,1.035749546
502,2073.012979692,1.0388537359999999
503,2073.033411459,1.039965021
504,2073.053843427,1.04153608
505,2073.074275294,1.039408446
506,2073.094707161,1.04102428
507,2073.1151390279997,1.038256001
508,2073.135570894,1.036118614
509,2073.15600276,1.033889493
510,2073.176434626,1.037558763
511,2073.196866491,1.038449156
512,2073.258162085,1.037447325
513,2073.27859395,1.03885368
514,2073.299025914,1.040397453
515,2073.319457677,1.043652148
516,2073.33988954,1.046094033
517,2073.360321503,1.048546363
518,2073.380753265,1.048072772
519,2073.421616989,1.045490343
520,2073.442048851,1.0444066570000001
521,2073.462480812,1.041568622
522,2073.482912573,1.043034972
523,2073.503344434,1.043153818
524,2073.523776394,1.038593465
525,2073.544208154,1.042234325
526,2073.564640014,1.040860799
527,2073.5850719729997,1.040765086
528,2073.625935591,1.053177042
529,2073.646367549,1.044555447
530,2073.6667994070003,1.041175927
531,2073.687231165,1.043308895
532,2073.7485267360003,1.046410656
533,2073.768958693,1.04579673
534,2073.789390549,1.04563437
535,2073.809822305,1.044938063
536,2073.83025426,1.0416098040000001
537,2073.850686116,1.0410183
538,2073.871118071,1.041564376
539,2073.891549825,1.041938375
540,2073.91198168,1.04401005
541,2073.932413634,1.043366821
542,2073.993709194,1.040984654
543,2074.014140946,1.045680142
544,2074.0345727989998,1.044849718
545,2074.055004751,1.0451557790000001
546,2074.075436603,1.047343362
547,2074.095868354,1.048450991
548,2074.116300305,1.046868294
549,2074.1367320560003,1.047178736
550,2074.1571639070003,1.044560421
551,2074.177595857,1.042010554
552,2074.238891406,1.044316849
553,2074.259323155,1.0438265290000002
554,2074.279755004,1.04380871
555,2074.3001869520003,1.043616684
556,2074.320618701,1.045144183
557,2074.341050648,1.045849932
558,2074.361482496,1.048006215
559,2074.3819142429998,1.049635981
560,2074.40234619,1.048660315
561,2074.422778036,1.045556812
562,2074.463641728,1.046026109
563,2074.484073574,1.045590768
564,2074.504505419,1.047122801
565,2074.524937264,1.04733792
566,2074.545369109,1.048106749
567,2074.5658009539998,1.048776626
568,2074.5862328979997,1.0467344
569,2074.606664641,1.045238547
570,2074.627096485,1.04350864
571,2074.647528428,1.0428164640000002
572,2074.7088239560003,1.041374243
573,2074.729255698,1.043397415
574,2074.749687639,1.044937889
575,2074.770119481,1.043515738
576,2074.790551222,1.043092218
577,2074.810983162,1.044845967
578,2074.831415003,1.045491187
579,2074.851846743,1.044933013
580,2074.872278683,1.0448423740000001
581,2074.892710422,1.044821861
582,2074.9131422620003,1.0450554490000001
583,2074.954005939,1.036734458
584,2074.9744377770003,1.0409787190000002
585,2074.994869715,1.04198367
586,2075.015301553,1.043331174
587,2075.0357332910003,1.045489162
588,2075.056165228,1.046120558
589,2075.076597064,1.04894894
590,2075.097028801,1.047800325
591,2075.1174607370003,1.04501275
592,2075.137892573,1.045823792
593,2075.158324508,1.0468762409999999
594,2075.178756244,1.049037347
595,2075.199188079,1.047296295
596,2075.2196200129997,1.048593252
597,2075.240051748,1.047875897
598,2075.2604835820002,1.0424633490000002
599,2075.2809155160003,1.046236346
600,2075.3013472489997,1.048968938
601,2075.321779082,1.055130671
602,2075.342211015,1.058780367
603,2075.362642748,1.049566495
604,2075.38307458,1.044725192
605,2075.403506512,1.055520895
606,2075.464802006,1.04099961
607,2075.485233837,1.038346878
608,2075.505665568,1.040665479
609,2075.5260974979997,1.0458953690000001
610,2075.546529328,1.045655687
611,2075.566961157,1.047434852
612,2075.587392987,1.0513144079999999
613,2075.607824816,1.052056975
614,2075.628256644,1.052534836
